# T(K)	P(bar)
3143.2      	1e-08       
3142.7383618919907	1.1885022274370215e-08
3142.1072425158154	1.4125375446227554e-08
3141.3636736365193	1.6788040181225588e-08
3140.523380529684	1.9952623149688826e-08
3139.489670576406	2.3713737056616554e-08
3138.3464840730567	2.818382931264461e-08
3136.9309144643644	3.3496543915782795e-08
3135.263167480601	3.981071705534969e-08
3133.3718923463243	4.731512589614813e-08
3131.0990347710717	5.6234132519034905e-08
3128.5322560357567	6.683439175686162e-08
3125.524143989564	7.94328234724282e-08
3122.033037789804	9.440608762859226e-08
3118.0721354031084	1.1220184543019653e-07
3113.578665543783	1.333521432163324e-07
3108.6085188555917	1.584893192461114e-07
3103.1183885324895	1.883649089489802e-07
3097.118772951708	2.2387211385683422e-07
3090.736861099451	2.6607250597988136e-07
3084.418147924839	3.162277660168379e-07
3078.1183020206395	3.7583740428844433e-07
3072.001862387615	4.466835921509635e-07
3066.2661137462037	5.308844442309889e-07
3061.38066507262	6.309573444801942e-07
3057.11612686223	7.498942093324558e-07
3053.0167608710913	8.912509381337459e-07
3048.773073556955	1.0592537251772896e-06
3043.935936946558	1.2589254117941687e-06
3037.7317475530867	1.4962356560944327e-06
3029.4816176988325	1.7782794100389227e-06
3018.7270092232848	2.1134890398366474e-06
3004.7125435905605	2.511886431509582e-06
2986.334471231828	2.9853826189179636e-06
2961.7660790953983	3.5481338923357534e-06
2932.7150816655158	4.216965034285822e-06
2901.1692070426907	5.011872336272725e-06
2870.160661214747	5.95662143529011e-06
2846.3885424733653	7.079457843841388e-06
2831.696011291105	8.413951416451948e-06
2819.210737033667	1e-05       
2807.097670020221	1.188502227437019e-05
2794.019671515985	1.4125375446227555e-05
2780.6673058360825	1.678804018122562e-05
2768.152663188667	1.9952623149688786e-05
2756.4471987159486	2.371373705661655e-05
2745.5830087868208	2.818382931264455e-05
2735.3492973021926	3.349654391578279e-05
2725.493027035551	3.981071705534977e-05
2715.689296005706	4.731512589614803e-05
2705.930833328171	5.623413251903491e-05
2696.043870341936	6.683439175686148e-05
2685.5319045615647	7.943282347242821e-05
2673.846717078849	9.440608762859246e-05
2660.43577196614	0.00011220184543019629
2643.9521425589924	0.0001333521432163324
2622.8496126785	0.00015848931924611142
2595.9615819459177	0.00018836490894898024
2563.400064423419	0.00022387211385683424
2523.049646684117	0.0002660725059798809
2472.907376742715	0.0003162277660168379
2410.853234146816	0.00037583740428844437
2335.1237751296594	0.0004466835921509635
2247.430236502747	0.0005308844442309889
2160.878664351478	0.000630957344480193
2086.910642732697	0.0007498942093324559
2037.3356766545105	0.0008912509381337458
2009.1167516431792	0.0010592537251772895
1987.9547739777868	0.0012589254117941673
1972.7818195374268	0.0014962356560944345
1962.5662944284925	0.0017782794100389225
1956.0834666824044	0.0021134890398366475
1951.2407966180388	0.002511886431509582
1947.4129851787463	0.0029853826189179603
1944.3623879942586	0.0035481338923357567
1941.6931593455765	0.004216965034285822
1938.8068423511197	0.0050118723362727255
1935.7507986290077	0.005956621435290103
1932.9645895601086	0.00707945784384138
1930.7110193839999	0.008413951416451957
1929.1      	0.01        
1927.6381459913048	0.01188502227437019
1927.7475083157608	0.014125375446227554
1929.646203362966	0.016788040181225587
1933.2744084467708	0.01995262314968883
1937.8068290111448	0.023713737056616554
1944.0996891908837	0.02818382931264455
1952.6567845977227	0.033496543915782793
1963.474762524565	0.03981071705534969
1976.3551695148278	0.04731512589614813
1990.8544333569548	0.056234132519034905
2008.7654792759606	0.06683439175686148
2029.6772983572766	0.07943282347242821
2053.202592257797	0.09440608762859228
2078.7995318853705	0.11220184543019629
2106.8970077764416	0.1333521432163324
2137.7298615681393	0.1584893192461114
2170.7548128914136	0.18836490894898023
2205.651040189578	0.22387211385683378
2242.2672594419	0.26607250597988086
2279.7263653732116	0.3162277660168379
2317.9004001235826	0.3758374042884443
2356.0523928468624	0.4466835921509634
2393.5007873259406	0.5308844442309879
2428.959688989045	0.630957344480193
2460.513576448998	0.7498942093324559
2488.550053272457	0.8912509381337458
2512.401187323779	1.0592537251772898
2531.6463292595568	1.2589254117941662
2544.364917516172	1.4962356560944328
2552.92217487991	1.7782794100389228
2558.629059617723	2.1134890398366473
2562.1571458962267	2.511886431509582
2564.163485673381	2.9853826189179573
2565.105940968396	3.548133892335753
2565.613989074086	4.216965034285823
2565.8650039255313	5.011872336272725
2566.0      	5.956621435290109
2566.0      	7.079457843841373
2566.0      	8.413951416451948
2566.0      	10.0        
