# T(K)	P(bar)
3083.2      	1e-08       
3050.962272124036	1.1885022274370215e-08
3027.502790442832	1.4125375446227554e-08
3004.4967404599256	1.6788040181225588e-08
2976.3285881167176	1.9952623149688826e-08
2945.476321818875	2.3713737056616554e-08
2914.916945133561	2.818382931264461e-08
2885.947186019249	3.3496543915782795e-08
2860.1964516192584	3.981071705534969e-08
2839.1133673605273	4.731512589614813e-08
2824.3006059218137	5.6234132519034905e-08
2813.156538493864	6.683439175686162e-08
2803.648948544096	7.94328234724282e-08
2794.9265534507895	9.440608762859226e-08
2786.148679930248	1.1220184543019653e-07
2777.316687448125	1.333521432163324e-07
2768.106397919257	1.584893192461114e-07
2758.5427268850835	1.883649089489802e-07
2748.6980827370426	2.2387211385683422e-07
2738.726345467892	2.6607250597988136e-07
2729.154272471708	3.162277660168379e-07
2719.5754105814754	3.7583740428844433e-07
2709.9264001546444	4.466835921509635e-07
2700.0913316050655	5.308844442309889e-07
2690.0052440208938	6.309573444801942e-07
2679.5739491345043	7.498942093324558e-07
2668.3741295866967	8.912509381337459e-07
2655.967591058765	1.0592537251772896e-06
2641.8216978835703	1.2589254117941687e-06
2626.8540909718217	1.4962356560944327e-06
2610.4809598504194	1.7782794100389227e-06
2592.038958334319	2.1134890398366474e-06
2571.0873925886717	2.511886431509582e-06
2547.3323296271665	2.9853826189179636e-06
2520.778702077906	3.5481338923357534e-06
2489.884644489523	4.216965034285822e-06
2452.9789479576293	5.011872336272725e-06
2408.4114166584163	5.95662143529011e-06
2355.082630281916	7.079457843841388e-06
2293.0996454018305	8.413951416451948e-06
2223.1198362147406	1e-05       
2150.354240107845	1.188502227437019e-05
2082.9724742257044	1.4125375446227555e-05
2038.542672635854	1.678804018122562e-05
2009.041774642789	1.9952623149688786e-05
1986.6380549416263	2.371373705661655e-05
1969.0587595858199	2.818382931264455e-05
1955.682263517338	3.349654391578279e-05
1947.9820523715246	3.981071705534977e-05
1943.1078896661913	4.731512589614803e-05
1940.4051161194993	5.623413251903491e-05
1939.3740958203812	6.683439175686148e-05
1939.7722763423649	7.943282347242821e-05
1941.0170314356835	9.440608762859246e-05
1942.7450862683875	0.00011220184543019629
1944.9257143232767	0.0001333521432163324
1947.5210934022632	0.00015848931924611142
1950.3514124267454	0.00018836490894898024
1953.402292926582	0.00022387211385683424
1956.6275343239915	0.0002660725059798809
1960.0087489165408	0.0003162277660168379
1963.5561903736948	0.00037583740428844437
1967.1992656795353	0.0004466835921509635
1971.0298964952103	0.0005308844442309889
1975.1181345108894	0.000630957344480193
1979.492217643786	0.0007498942093324559
1984.1373679386727	0.0008912509381337458
1988.899331647403	0.0010592537251772895
1993.734078661036	0.0012589254117941673
1998.6372384346632	0.0014962356560944345
2003.5604258920418	0.0017782794100389225
2008.1458406392749	0.0021134890398366475
2012.2856296540658	0.002511886431509582
2016.2552128351567	0.0029853826189179603
2020.143726917616	0.0035481338923357567
2024.0795143978696	0.004216965034285822
2027.9799427687572	0.0050118723362727255
2032.1676518851145	0.005956621435290103
2037.24904427587	0.00707945784384138
2043.5476579259998	0.008413951416451957
2051.2      	0.01        
2060.125003421508	0.01188502227437019
2071.505382220594	0.014125375446227554
2085.6283230876966	0.016788040181225587
2102.7101143884124	0.01995262314968883
2122.668668101707	0.023713737056616554
2146.523834465814	0.02818382931264455
2174.845622221677	0.033496543915782793
2207.5705201655223	0.03981071705534969
2244.3722194864217	0.04731512589614813
2283.9512910554713	0.056234132519034905
2325.2651175508	0.06683439175686148
2366.575377270825	0.07943282347242821
2405.9244346307455	0.09440608762859228
2441.266584142841	0.11220184543019629
2468.2061970164236	0.1333521432163324
2489.9023463801946	0.1584893192461114
2506.896696769518	0.18836490894898023
2519.577702529506	0.22387211385683378
2528.432605224512	0.26607250597988086
2534.079408504103	0.3162277660168379
2538.1939126639063	0.3758374042884443
2541.082898327699	0.4466835921509634
2543.0533595775314	0.5308844442309879
2544.2353229663017	0.630957344480193
2544.9973121896287	0.7498942093324559
2545.479077578738	0.8912509381337458
2545.7483703878997	1.0592537251772898
2545.9045507881683	1.2589254117941662
2545.9821031555866	1.4962356560944328
2546.0      	1.7782794100389228
2546.0      	2.1134890398366473
2546.0      	2.511886431509582
2546.0      	2.9853826189179573
2545.9245049193005	3.548133892335753
2545.9      	4.216965034285823
2545.8674980372343	5.011872336272725
2545.7875355373826	5.956621435290109
2545.7082951415778	7.079457843841373
2545.7      	8.413951416451948
2545.6      	10.0        
