# T(K)	P(bar)
3017.5      	1e-08       
2927.634448307575	1.1885022274370215e-08
2884.548504685061	1.4125375446227554e-08
2866.491430911274	1.6788040181225588e-08
2855.4881497492433	1.9952623149688826e-08
2845.4691148174697	2.3713737056616554e-08
2836.45281016497	2.818382931264461e-08
2827.9123009379127	3.3496543915782795e-08
2819.980358292814	3.981071705534969e-08
2812.8022006317465	4.731512589614813e-08
2806.8457462966026	5.6234132519034905e-08
2801.65578359777	6.683439175686162e-08
2796.84762741416	7.94328234724282e-08
2792.3241640948863	9.440608762859226e-08
2787.9853627752004	1.1220184543019653e-07
2783.9567346254607	1.333521432163324e-07
2780.0276657996906	1.584893192461114e-07
2776.1243383525943	1.883649089489802e-07
2772.1992330948174	2.2387211385683422e-07
2768.2105381871565	2.6607250597988136e-07
2764.2795798069124	3.162277660168379e-07
2759.9917901897056	3.7583740428844433e-07
2755.33308860318	4.466835921509635e-07
2750.294545943356	5.308844442309889e-07
2744.857514355013	6.309573444801942e-07
2739.2551344619033	7.498942093324558e-07
2733.3079872146104	8.912509381337459e-07
2727.040999290057	1.0592537251772896e-06
2720.517733793886	1.2589254117941687e-06
2714.003334930741	1.4962356560944327e-06
2707.236687346467	1.7782794100389227e-06
2699.9962055339706	2.1134890398366474e-06
2692.1799872358465	2.511886431509582e-06
2683.7533601717987	2.9853826189179636e-06
2674.918065719535	3.5481338923357534e-06
2665.3058468977792	4.216965034285822e-06
2654.8822271755794	5.011872336272725e-06
2643.6054016821386	5.95662143529011e-06
2631.5608615198385	7.079457843841388e-06
2618.7165530898624	8.413951416451948e-06
2604.4800727934485	1e-05       
2588.344868917348	1.188502227437019e-05
2569.736323446292	1.4125375446227555e-05
2548.6536407938147	1.678804018122562e-05
2524.4550789103823	1.9952623149688786e-05
2495.4703276497917	2.371373705661655e-05
2460.4847603869835	2.818382931264455e-05
2418.4500186054433	3.349654391578279e-05
2369.399673606612	3.981071705534977e-05
2313.604032930102	4.731512589614803e-05
2254.205191224673	5.623413251903491e-05
2195.745490749416	6.683439175686148e-05
2147.0878309629984	7.943282347242821e-05
2114.348065374693	9.440608762859246e-05
2088.1075889344997	0.00011220184543019629
2068.2217855041717	0.0001333521432163324
2054.4742849649924	0.00015848931924611142
2045.4329880812297	0.00018836490894898024
2038.014726268861	0.00022387211385683424
2031.536545850015	0.0002660725059798809
2025.9702855191053	0.0003162277660168379
2021.3438096263053	0.00037583740428844437
2017.7007343204646	0.0004466835921509635
2014.3974848739274	0.0005308844442309889
2011.578814160617	0.000630957344480193
2009.3236415833915	0.0007498942093324559
2007.5616880232621	0.0008912509381337458
2006.3872584724024	0.0010592537251772895
2005.5305369685593	0.0012589254117941673
2005.0687542187957	0.0014962356560944345
2005.0683199198663	0.0017782794100389225
2005.54267316958	0.0021134890398366475
2006.2765338969934	0.002511886431509582
2007.2443465243305	0.0029853826189179603
2008.4061149118745	0.0035481338923357567
2009.6838543193608	0.004216965034285822
2010.853982830627	0.0050118723362727255
2012.079680548397	0.005956621435290103
2013.656446792174	0.00707945784384138
2015.7612670472	0.008413951416451957
2018.5      	0.01        
2021.4237080173905	0.01188502227437019
2025.6945515577158	0.014125375446227554
2031.5605699076718	0.016788040181225587
2039.1488168935416	0.01995262314968883
2048.2136580222896	0.023713737056616554
2059.745862454824	0.02818382931264455
2074.2815810170473	0.033496543915782793
2091.8497809725686	0.03981071705534969
2112.3204054425632	0.04731512589614813
2135.44085319082	0.056234132519034905
2162.5800975016505	0.06683439175686148
2193.12030181666	0.07943282347242821
2226.3502367188767	0.09440608762859228
2261.2752531788583	0.11220184543019629
2295.5479984965386	0.1333521432163324
2328.4311122585004	0.1584893192461114
2358.7832974814696	0.18836490894898023
2385.4882026404016	0.22387211385683378
2407.3462507343806	0.26607250597988086
2423.23578194125	0.3162277660168379
2435.7409290143964	0.3758374042884443
2445.270255621088	0.4466835921509634
2452.313438310125	0.5308844442309879
2457.041291865206	0.630957344480193
2460.089248758514	0.7498942093324559
2462.240157288374	0.8912509381337458
2463.690222327399	1.0592537251772898
2464.62275394084	1.2589254117941662
2465.010515777932	1.4962356560944328
2465.2196207421257	1.7782794100389228
2465.3385811923545	2.1134890398366473
2465.4      	2.511886431509582
2465.4      	2.9853826189179573
2465.4      	3.548133892335753
2465.4      	4.216965034285823
2465.3674980372343	5.011872336272725
2465.3      	5.956621435290109
2465.3      	7.079457843841373
2465.231050911249	8.413951416451948
2465.2      	10.0        
