# T(K)	P(bar)
3075.6      	1e-08       
3072.830171351946	1.1885022274370215e-08
3072.054750831576	1.4125375446227554e-08
3071.999102090956	1.6788040181225588e-08
3071.7592416606963	1.9952623149688826e-08
3071.52069320994	2.3713737056616554e-08
3071.359531209741	2.818382931264461e-08
3071.154637169655	3.3496543915782795e-08
3070.916934888774	3.981071705534969e-08
3070.668536875355	4.731512589614813e-08
3070.355039278769	5.6234132519034905e-08
3069.9812141229054	6.683439175686162e-08
3069.5463062842236	7.94328234724282e-08
3069.025802088131	9.440608762859226e-08
3068.382363503877	1.1220184543019653e-07
3067.762574557763	1.333521432163324e-07
3066.910639791926	1.584893192461114e-07
3065.9289060935453	1.883649089489802e-07
3064.8277392522377	2.2387211385683422e-07
3063.471582983633	2.6607250597988136e-07
3061.8680622734346	3.162277660168379e-07
3060.02446938145	3.7583740428844433e-07
3057.896655775732	4.466835921509635e-07
3055.4217130420893	5.308844442309889e-07
3052.5062033497898	6.309573444801942e-07
3049.179807072928	7.498942093324558e-07
3045.4167608710914	8.912509381337459e-07
3042.3581480605008	1.0592537251772896e-06
3041.427070049615	1.2589254117941687e-06
3038.4800800877165	1.4962356560944327e-06
3034.1515673651647	1.7782794100389227e-06
3029.1922224969594	2.1134890398366474e-06
3024.047992341508	2.511886431509582e-06
3018.9920161030795	2.9853826189179636e-06
3014.974255803616	3.5481338923357534e-06
3012.3625682869642	4.216965034285822e-06
3011.7200314042498	5.011872336272725e-06
3013.0991471028206	5.95662143529011e-06
3015.0009166021305	7.079457843841388e-06
3016.5100326862653	8.413951416451948e-06
3018.8945404913557	1e-05       
3022.3606675857277	1.188502227437019e-05
3026.807247839514	1.4125375446227555e-05
3031.4142044191294	1.678804018122562e-05
3036.741892538394	1.9952623149688786e-05
3044.084423902728	2.371373705661655e-05
3052.8606230025034	2.818382931264455e-05
3060.8883023619965	3.349654391578279e-05
3066.663460721357	3.981071705534977e-05
3072.8990218202566	4.731512589614803e-05
3079.0195081997676	5.623413251903491e-05
3084.1593940863636	6.683439175686148e-05
3086.628113322663	7.943282347242821e-05
3087.3727206756157	9.440608762859246e-05
3088.4466586625035	0.00011220184543019629
3088.5189285397355	0.0001333521432163324
3085.9934902401696	0.00015848931924611142
3080.647332082814	0.00018836490894898024
3073.7496689456966	0.00022387211385683424
3063.7120153680316	0.0002660725059798809
3049.466511517724	0.0003162277660168379
3030.199716968466	0.00037583740428844437
3006.868532562976	0.0004466835921509635
2978.364003197167	0.0005308844442309889
2943.464077898365	0.000630957344480193
2901.7212155508155	0.0007498942093324559
2854.068380629134	0.0008912509381337458
2801.362255267527	0.0010592537251772895
2743.434829532296	0.0012589254117941673
2681.6971123802164	0.0014962356560944345
2617.7337440845913	0.0017782794100389225
2554.091349747995	0.0021134890398366475
2488.3533916379542	0.002511886431509582
2414.483198758631	0.0029853826189179603
2327.1747237722557	0.0035481338923357567
2214.8366746877614	0.004216965034285822
2010.2202023509954	0.0050118723362727255
1792.5719422482382	0.005956621435290103
1694.0352888015232	0.00707945784384138
1714.9617623735996	0.008413951416451957
1726.4      	0.01        
1740.787721032948	0.01188502227437019
1756.5429237993974	0.014125375446227554
1773.3991799965693	0.016788040181225587
1790.7172226202488	0.01995262314968883
1806.620452670683	0.023713737056616554
1821.9766446307842	0.02818382931264455
1838.2692152313014	0.033496543915782793
1855.225311267449	0.03981071705534969
1872.328216700375	0.04731512589614813
1888.5517173237279	0.056234132519034905
1905.2353070659065	0.06683439175686148
1922.1061269100692	0.07943282347242821
1938.71139831875	0.09440608762859228
1954.6239276205397	0.11220184543019629
1969.521765112234	0.1333521432163324
1984.3337686397501	0.1584893192461114
1998.95907669756	0.18836490894898023
2013.3026841681396	0.22387211385683378
2027.2631163449512	0.26607250597988086
2040.3284512280757	0.3162277660168379
2052.757268610269	0.3758374042884443
2064.3951604833474	0.4466835921509634
2075.1166526484153	0.5308844442309879
2084.4935621993254	0.630957344480193
2092.569538149122	0.7498942093324559
2099.9397067322348	0.8912509381337458
2106.6380747401936	1.0592537251772898
2112.695801230922	1.2589254117941662
2117.7367051131173	1.4962356560944328
2122.0699496663324	1.7782794100389228
2125.8589912712423	2.1134890398366473
2129.1034325830196	2.511886431509582
2131.7518010888634	2.9853826189179573
2133.6118819367925	3.548133892335753
2135.1629508333854	4.216965034285823
2136.3900235531873	5.011872336272725
2137.3121801635575	5.956621435290109
2138.025343725799	7.079457843841373
2138.7894908875082	8.413951416451948
2139.6      	10.0        
