# T(K)	P(bar)
3032.5      	1e-08       
2952.713546999106	1.1885022274370215e-08
2908.6516939800085	1.4125375446227554e-08
2887.0223698204895	1.6788040181225588e-08
2875.6919414457616	1.9952623149688826e-08
2866.865648767771	2.3713737056616554e-08
2858.6551541162657	2.818382931264461e-08
2850.7030265986036	3.3496543915782795e-08
2843.16342340404	3.981071705534969e-08
2836.210066412908	4.731512589614813e-08
2830.3319864769105	5.6234132519034905e-08
2825.283297948608	6.683439175686162e-08
2820.843603415899	7.94328234724282e-08
2816.9419114847224	9.440608762859226e-08
2813.4140220814006	1.1220184543019653e-07
2810.3925509690953	1.333521432163324e-07
2807.589366059783	1.584893192461114e-07
2804.9403842302654	1.883649089489802e-07
2802.4195398568904	2.2387211385683422e-07
2800.0263229122943	2.6607250597988136e-07
2797.857416364579	3.162277660168379e-07
2795.56936325774	3.7583740428844433e-07
2793.1063213533052	4.466835921509635e-07
2790.4217130420893	5.308844442309889e-07
2787.5062033497898	6.309573444801942e-07
2784.3789111361375	7.498942093324558e-07
2781.0749160285673	8.912509381337459e-07
2777.635851466204	1.0592537251772896e-06
2774.113417685111	1.2589254117941687e-06
2770.9337706209567	1.4962356560944327e-06
2767.867395528548	1.7782794100389227e-06
2764.872495882885	2.1134890398366474e-06
2761.959995745282	2.511886431509582e-06
2759.1511200572663	2.9853826189179636e-06
2756.4576721755107	3.5481338923357534e-06
2753.72759560175	4.216965034285822e-06
2750.962431303203	5.011872336272725e-06
2748.1762082710047	5.95662143529011e-06
2745.4820348136477	7.079457843841388e-06
2743.1315273374753	8.413951416451948e-06
2740.8777070063693	1e-05       
2738.709502595838	1.188502227437019e-05
2736.627437356138	1.4125375446227555e-05
2734.6753371105387	1.678804018122562e-05
2732.4857058646	1.9952623149688786e-05
2729.8385253657575	2.371373705661655e-05
2726.5696884987483	2.818382931264455e-05
2722.51993919179	3.349654391578279e-05
2717.283795612637	3.981071705534977e-05
2710.808378756063	4.731512589614803e-05
2702.7708060059363	5.623413251903491e-05
2692.8030295681824	6.683439175686148e-05
2680.4594333866853	7.943282347242821e-05
2665.0672128562505	9.440608762859246e-05
2646.002478653623	0.00011220184543019629
2622.4171424439573	0.0001333521432163324
2593.2971398599707	0.00015848931924611142
2557.1319523249185	0.00018836490894898024
2514.5124977656974	0.00022387211385683424
2466.199167090132	0.0002660725059798809
2412.9224606649113	0.0003162277660168379
2356.056536360999	0.00037583740428844437
2306.0611412063768	0.0004466835921509635
2263.639261959141	0.0005308844442309889
2228.7962784821525	0.000630957344480193
2201.6205566067374	0.0007498942093324559
2181.1178242706865	0.0008912509381337458
2167.4180155113622	0.0010592537251772895
2156.4840052369773	0.0012589254117941673
2147.5691592231883	0.0014962356560944345
2139.989067735115	0.0017782794100389225
2133.6643577389314	0.0021134890398366475
2128.9084500077383	0.002511886431509582
2124.330564399202	0.0029853826189179603
2119.7532156264465	0.0035481338923357567
2115.214895314173	0.004216965034285822
2111.2364583758676	0.0050118723362727255
2107.460958354809	0.005956621435290103
2103.607402516304	0.00707945784384138
2099.6664465216	0.008413951416451957
2095.8      	0.01        
2092.106895135928	0.01188502227437019
2088.4814617475013	0.014125375446227554
2084.9537966370344	0.016788040181225587
2081.488624910444	0.01995262314968883
2077.910398149096	0.023713737056616554
2074.439452219169	0.02818382931264455
2071.21028320551	0.033496543915782793
2068.258595406106	0.03981071705534969
2065.5011003158734	0.04731512589614813
2062.522873148301	0.056234132519034905
2060.087284737432	0.06683439175686148
2058.23891885267	0.07943282347242821
2057.091126305082	0.09440608762859228
2056.7285547101915	0.11220184543019629
2057.732035992016	0.1333521432163324
2060.0062534518056	0.1584893192461114
2063.2394236546015	0.18836490894898023
2067.228889610012	0.22387211385683378
2071.855775702898	0.26607250597988086
2077.3523579196535	0.3162277660168379
2083.4327192041023	0.3758374042884443
2089.7788064572387	0.4466835921509634
2096.087245831328	0.5308844442309879
2102.154657893681	0.630957344480193
2107.579393453818	0.7498942093324559
2112.3175473129622	0.8912509381337458
2116.194852176147	1.0592537251772898
2119.1001173396967	1.2589254117941662
2120.806269422901	1.4962356560944328
2121.8579140816914	1.7782794100389228
2122.454324769418	2.1134890398366473
2122.7182858358487	2.511886431509582
2122.7985394269353	2.9853826189179573
2122.8754950806997	3.548133892335753
2122.9534972685215	4.216965034285823
2123.0325019627658	5.011872336272725
2123.1124644626175	5.956621435290109
2123.191704858422	7.079457843841373
2123.3378981775018	8.413951416451948
2123.4      	10.0        
