# T(K)	P(bar)
3144.5      	1e-08       
3138.344825226546	1.1885022274370215e-08
3131.243920168698	1.4125375446227554e-08
3123.3349405471076	1.6788040181225588e-08
3114.791941445762	1.9952623149688826e-08
3105.9656487677707	2.3713737056616554e-08
3097.333747745488	2.818382931264461e-08
3089.009209491476	3.3496543915782795e-08
3081.3188001448566	3.981071705534969e-08
3074.5808584433585	4.731512589614813e-08
3069.408148099681	5.6234132519034905e-08
3065.184626878216	6.683439175686162e-08
3061.185885701862	7.94328234724282e-08
3056.993515660985	9.440608762859226e-08
3052.132453286832	1.1220184543019653e-07
3046.24445829875	1.333521432163324e-07
3039.012778283387	1.584893192461114e-07
3030.197774913867	1.883649089489802e-07
3019.569576579622	2.2387211385683422e-07
3006.9653006714157	2.6607250597988136e-07
2992.001914552054	3.162277660168379e-07
2974.0977574887247	3.7583740428844433e-07
2953.809679033305	4.466835921509635e-07
2932.264454984815	5.308844442309889e-07
2912.7226602904816	6.309573444801942e-07
2897.589180059944	7.498942093324558e-07
2885.4352092963327	8.912509381337459e-07
2875.539628665509	1.0592537251772896e-06
2866.6539054198365	1.2589254117941687e-06
2857.34762132963	1.4962356560944327e-06
2847.1854102775746	1.7782794100389227e-06
2836.70728260921	2.1134890398366474e-06
2826.515414713205	2.511886431509582e-06
2817.3665053293817	2.9853826189179636e-06
2810.556432898427	3.5481338923357534e-06
2804.5481966664574	4.216965034285822e-06
2799.1198743830005	5.011872336272725e-06
2794.1019900934198	5.95662143529011e-06
2789.664527928361	7.079457843841388e-06
2785.5456982962064	8.413951416451948e-06
2781.3026387625114	1e-05       
2776.753429266998	1.188502227437019e-05
2771.730629608696	1.4125375446227555e-05
2766.4209169406645	1.678804018122562e-05
2760.9581074616062	1.9952623149688786e-05
2755.546873671204	2.371373705661655e-05
2750.322413738448	2.818382931264455e-05
2745.3305354752297	3.349654391578279e-05
2740.7874108991996	3.981071705534977e-05
2736.4152902425108	4.731512589614803e-05
2732.110368850174	5.623413251903491e-05
2727.7849459758067	6.683439175686148e-05
2723.404960233985	7.943282347242821e-05
2719.019365186238	9.440608762859246e-05
2714.660810209548	0.00011220184543019629
2710.0485713534467	0.0001333521432163324
2704.8310554119516	0.00015848931924611142
2698.93455744428	0.00018836490894898024
2692.2098982383545	0.00022387211385683424
2684.270087858022	0.0002660725059798809
2674.7674182447217	0.0003162277660168379
2663.331732895707	0.00037583740428844437
2650.077139761691	0.0004466835921509635
2634.377238860308	0.0005308844442309889
2616.069920365244	0.000630957344480193
2595.087590178805	0.0007498942093324559
2571.621572309809	0.0008912509381337458
2546.1713208558417	0.0010592537251772895
2519.238779214764	0.0012589254117941673
2491.713942828148	0.0014962356560944345
2464.3513111808593	0.0017782794100389225
2437.6294114469842	0.0021134890398366475
2410.1800864876313	0.002511886431509582
2382.123138877834	0.0029853826189179603
2354.0685293946954	0.0035481338923357567
2326.4713506547	0.004216965034285822
2299.558394895575	0.0050118723362727255
2272.3470279352664	0.005956621435290103
2245.2698929598896	0.00707945784384138
2218.7763101440005	0.008413951416451957
2193.0      	0.01        
2168.840939014194	0.01188502227437019
2146.6530229797345	0.014125375446227554
2126.6990241853428	0.016788040181225587
2108.9420190404476	0.01995262314968883
2092.8002405392567	0.023713737056616554
2079.811324803621	0.02818382931264455
2069.6669381075676	0.033496543915782793
2062.0510605897607	0.03981071705534969
2056.1415295375523	0.04731512589614813
2050.5769471981416	0.056234132519034905
2046.5396555798916	0.06683439175686148
2043.6160959930426	0.07943282347242821
2041.586279959312	0.09440608762859228
2040.1021965161685	0.11220184543019629
2040.1793873840013	0.1333521432163324
2041.6903597070557	0.1584893192461114
2044.466947668993	0.18836490894898023
2048.424981638634	0.22387211385683378
2053.5305111204393	0.26607250597988086
2059.927750906262	0.3162277660168379
2067.2511012494583	0.3758374042884443
2075.201481836653	0.4466835921509634
2083.4530690990487	0.5308844442309879
2091.569217701937	0.630957344480193
2098.7394899173537	0.7498942093324559
2105.112935206652	0.8912509381337458
2110.554370861195	1.0592537251772898
2114.963828374049	1.2589254117941662
2117.755713601111	1.4962356560944328
2119.65601779232	1.7782794100389228
2120.8858119235447	2.1134890398366473
2121.5914291792456	2.511886431509582
2121.9926971346763	2.9853826189179573
2122.0754950806995	3.548133892335753
2122.1534972685213	4.216965034285823
2122.2325019627656	5.011872336272725
2122.3124644626178	5.956621435290109
2122.391704858422	7.079457843841373
2122.5378981775016	8.413951416451948
2122.7      	10.0        
