# T(K)	P(bar)
3128.5      	1e-08       
3128.423060315332	1.1885022274370215e-08
3128.290498336848	1.4125375446227554e-08
3128.1663673636517	1.6788040181225588e-08
3128.0728277737976	1.9952623149688826e-08
3127.9137954732932	2.3713737056616554e-08
3127.7595312097405	2.818382931264461e-08
3127.5546371696546	3.3496543915782795e-08
3127.2892465183654	3.981071705534969e-08
3126.968536875355	4.731512589614813e-08
3126.6550392787685	5.6234132519034905e-08
3126.2174569474864	6.683439175686162e-08
3125.7040239982607	7.94328234724282e-08
3125.1258020881314	9.440608762859226e-08
3124.4779543798463	1.1220184543019653e-07
3123.703218197204	1.333521432163324e-07
3122.7531931079193	1.584893192461114e-07
3121.620192115133	1.883649089489802e-07
3120.279693237927	2.2387211385683422e-07
3118.6842152748627	2.6607250597988136e-07
3116.849214026782	3.162277660168379e-07
3114.66936325774	3.7583740428844433e-07
3112.1159869308785	4.466835921509635e-07
3109.1603692110766	5.308844442309889e-07
3105.7720741632693	6.309573444801942e-07
3101.8488629043695	7.498942093324558e-07
3097.413836318931	8.912509381337459e-07
3092.407036423506	1.0592537251772896e-06
3086.6722259122052	1.2589254117941687e-06
3079.3823033748768	1.4962356560944327e-06
3070.941428069895	1.7782794100389227e-06
3061.615932148046	2.1134890398366474e-06
3051.769128026412	2.511886431509582e-06
3041.9781899138998	2.9853826189179636e-06
3033.5710362037335	3.5481338923357534e-06
3025.389781342293	4.216965034285822e-06
3016.602258579829	5.011872336272725e-06
3006.1062545793184	5.95662143529011e-06
2992.1599449177074	7.079457843841388e-06
2972.359542392282	8.413951416451948e-06
2945.162875341219	1e-05       
2908.224790074143	1.188502227437019e-05
2859.430023189899	1.4125375446227555e-05
2800.94509983173	1.678804018122562e-05
2748.5342916864333	1.9952623149688786e-05
2706.9292362120486	2.371373705661655e-05
2676.562374602666	2.818382931264455e-05
2652.9585642002808	3.349654391578279e-05
2630.6279518774218	3.981071705534977e-05
2604.3896006562068	4.731512589614803e-05
2573.437998615305	5.623413251903491e-05
2537.4311413055743	6.683439175686148e-05
2497.294544689609	7.943282347242821e-05
2452.9061609334067	9.440608762859246e-05
2399.9936775123533	0.00011220184543019629
2338.074284690713	0.0001333521432163324
2267.064788430761	0.00015848931924611142
2187.422755880745	0.00018836490894898024
2106.5548680003826	0.00022387211385683424
2032.827160856172	0.0002660725059798809
1972.6637913367304	0.0003162277660168379
1931.2861201539145	0.00037583740428844437
1909.970254002719	0.0004466835921509635
1894.562558126572	0.0005308844442309889
1883.5505952847848	0.000630957344480193
1876.1762111592336	0.0007498942093324559
1871.8514160570978	0.0008912509381337458
1870.1421618613633	0.0010592537251772895
1869.6      	0.0012589254117941673
1870.0374409368594	0.0014962356560944345
1871.2277330662214	0.0017782794100389225
1872.8089105652673	0.0021134890398366475
1874.2177610145884	0.002511886431509582
1875.628445531282	0.0029853826189179603
1877.056879275859	0.0035481338923357567
1878.4782640314036	0.004216965034285822
1879.570383975252	0.0050118723362727255
1880.3510703084733	0.005956621435290103
1881.0188155973913	0.00707945784384138
1881.5583470924	0.008413951416451957
1881.8      	0.01        
1881.2614222073228	0.01188502227437019
1880.8809966736958	0.014125375446227554
1880.8681631817403	0.016788040181225587
1881.30868890481	0.01995262314968883
1881.9448181068274	0.023713737056616554
1883.61539108798	0.02818382931264455
1886.964985222998	0.033496543915782793
1892.2365765959603	0.03981071705534969
1899.4966990523803	0.04731512589614813
1908.4313805550964	0.056234132519034905
1920.7749626457983	0.06683439175686148
1936.498078913548	0.07943282347242821
1955.6751521764204	0.09440608762859228
1978.2819597560215	0.11220184543019629
2005.7619087044318	0.1333521432163324
2038.092185856778	0.1584893192461114
2075.1089003445327	0.18836490894898023
2116.6928040714984	0.22387211385683378
2162.4830216114397	0.26607250597988086
2211.368777705823	0.3162277660168379
2261.5597111833354	0.3758374042884443
2311.6884451233477	0.4466835921509634
2360.27430436866	0.5308844442309879
2404.006949753155	0.630957344480193
2441.093865839606	0.7498942093324559
2473.0960596651516	0.8912509381337458
2499.7300023664766	1.0592537251772898
2521.023692658413	1.2589254117941662
2535.0606711611413	1.4962356560944328
2544.8791408169163	1.7782794100389228
2551.7306151183316	2.1134890398366473
2556.258290090567	2.511886431509582
2559.1474193696686	2.9853826189179573
2560.7099016139937	3.548133892335753
2561.788469953736	4.216965034285823
2562.462509813828	5.011872336272725
2562.837393387853	5.956621435290109
2563.075114575266	7.079457843841373
2563.1      	8.413951416451948
2563.2      	10.0        
