# T(K)	P(bar)
3138.8      	1e-08       
3138.184482522655	1.1885022274370215e-08
3137.4524916842392	1.4125375446227554e-08
3136.5964083638237	1.6788040181225588e-08
3135.5962083034815	1.9952623149688826e-08
3134.403466049699	2.3713737056616554e-08
3132.965546492538	2.818382931264461e-08
3131.285551634019	3.3496543915782795e-08
3129.324725628558	3.981071705534969e-08
3127.024697659357	4.731512589614813e-08
3124.281593689225	5.6234132519034905e-08
3121.185955807824	6.683439175686162e-08
3117.5858857018616	7.94328234724282e-08
3113.4370651389518	9.440608762859226e-08
3108.750089782955	1.1220184543019653e-07
3103.4818837409866	1.333521432163324e-07
3097.676605331523	1.584893192461114e-07
3091.283532618839	1.883649089489802e-07
3084.3426042325673	2.2387211385683422e-07
3077.083179500625	2.6607250597988136e-07
3070.061603184882	3.162277660168379e-07
3063.2121746721873	3.7583740428844433e-07
3056.6513050169037	4.466835921509635e-07
3050.504769915191	5.308844442309889e-07
3045.1465358861	6.309573444801942e-07
3040.0860786304615	7.498942093324558e-07
3034.810911766771	8.912509381337459e-07
3028.8717029324075	1.0592537251772896e-06
3021.6220499026604	1.2589254117941687e-06
3011.772899240525	1.4962356560944327e-06
2998.7341332086826	1.7782794100389227e-06
2981.1988216413565	2.1134890398366474e-06
2957.4856656603674	2.511886431509582e-06
2925.384229225901	2.9853826189179636e-06
2882.5227548081716	3.5481338923357534e-06
2834.3477590722027	4.216965034285822e-06
2789.12407750016	5.011872336272725e-06
2754.2090975699175	5.95662143529011e-06
2733.9235562439385	7.079457843841388e-06
2715.8727604985606	8.413951416451948e-06
2695.0520473157417	1e-05       
2671.168782447974	1.188502227437019e-05
2645.153320710359	1.4125375446227555e-05
2620.8691936550977	1.678804018122562e-05
2594.3033466417196	1.9952623149688786e-05
2565.092156404656	2.371373705661655e-05
2534.890850641364	2.818382931264455e-05
2507.157386835454	3.349654391578279e-05
2484.749772401137	3.981071705534977e-05
2466.9024454493588	4.731512589614803e-05
2452.16112021164	5.623413251903491e-05
2438.9511037788866	6.683439175686148e-05
2425.2536938226444	7.943282347242821e-05
2411.9865054742613	9.440608762859246e-05
2401.57181696836	0.00011220184543019629
2392.904642731544	0.0001333521432163324
2384.2653657038186	0.00015848931924611142
2375.145448847153	0.00018836490894898024
2366.8039237445573	0.00022387211385683424
2358.226575136023	0.0002660725059798809
2348.7132704682012	0.0003162277660168379
2337.4417024940276	0.00037583740428844437
2324.4196460816606	0.0004466835921509635
2309.8320015985837	0.0005308844442309889
2292.793140423623	0.000630957344480193
2272.7731261825793	0.0007498942093324559
2249.707552304522	0.0008912509381337458
2224.4196863928546	0.0010592537251772895
2196.8606659471275	0.0012589254117941673
2167.4953573611824	0.0014962356560944345
2137.1324848881495	0.0017782794100389225
2108.19693665561	0.0021134890398366475
2083.659795803501	0.002511886431509582
2062.0017625620508	0.0029853826189179603
2043.1966526916062	0.0035481338923357567
2026.8490258640104	0.004216965034285822
2012.1834151894727	0.0050118723362727255
1998.0173637962591	0.005956621435290103
1984.9425036495645	0.00707945784384138
1973.5244633964003	0.008413951416451957
1964.1      	0.01        
1955.9443934251738	0.01188502227437019
1950.926710915925	0.014125375446227554
1948.900897909044	0.016788040181225587
1949.3173778096198	0.01995262314968883
1950.5896362136548	0.023713737056616554
1953.649844595442	0.02818382931264455
1958.8247964193245	0.033496543915782793
1965.8795905224986	0.03981071705534969
1974.2573701465742	0.04731512589614813
1982.800179653557	0.056234132519034905
1993.7998191374197	0.06683439175686148
2006.810811473298	0.07943282347242821
2021.5331730577336	0.09440608762859228
2037.6073952349464	0.11220184543019629
2055.43848570428	0.1333521432163324
2075.390204706528	0.1584893192461114
2097.0278279491963	0.18836490894898023
2120.0206167692004	0.22387211385683378
2144.0325601133163	0.26607250597988086
2168.4979141451363	0.3162277660168379
2193.5798555916676	0.3758374042884443
2218.975448777239	0.4466835921509634
2244.4103271563226	0.5308844442309879
2269.1527607612443	0.630957344480193
2292.2449342366667	0.7498942093324559
2313.88481201265	0.8912509381337458
2333.596557475031	1.0592537251772898
2350.9599816240607	1.2589254117941662
2363.9112269829316	1.4962356560944328
2373.598761559042	1.7782794100389228
2380.8006834648127	2.1134890398366473
2385.8680051056613	2.511886431509582
2389.2386559312804	2.9853826189179573
2391.1873770174925	3.548133892335753
2392.4954644907784	4.216965034285823
2393.3275137393593	5.011872336272725
2393.84985785047	5.956621435290109
2394.1668194336885	7.079457843841373
2394.268949088751	8.413951416451948
2394.3      	10.0        
