# T(K)	P(bar)
3138.9      	1e-08       
3138.284482522655	1.1885022274370215e-08
3137.552491684239	1.4125375446227554e-08
3136.6964083638236	1.6788040181225588e-08
3135.6962083034814	1.9952623149688826e-08
3134.503466049699	2.3713737056616554e-08
3133.065546492538	2.818382931264461e-08
3131.385551634019	3.3496543915782795e-08
3129.424725628558	3.981071705534969e-08
3127.124697659357	4.731512589614813e-08
3124.3815936892247	5.6234132519034905e-08
3121.2859558078244	6.683439175686162e-08
3117.7281679878247	7.94328234724282e-08
3113.6152903999687	9.440608762859226e-08
3108.8522943449702	1.1220184543019653e-07
3103.6615619212666	1.333521432163324e-07
3097.8766053315235	1.584893192461114e-07
3091.483532618839	1.883649089489802e-07
3084.542604232567	2.2387211385683422e-07
3077.2831795006255	2.6607250597988136e-07
3070.2616031848825	3.162277660168379e-07
3063.4121746721876	3.7583740428844433e-07
3056.881416491046	4.466835921509635e-07
3050.804769915191	5.308844442309889e-07
3045.4465358861	6.309573444801942e-07
3040.3860786304613	7.498942093324558e-07
3035.1109117667706	8.912509381337459e-07
3029.1958881263577	1.0592537251772896e-06
3022.0311514789964	1.2589254117941687e-06
3012.3371055516977	1.4962356560944327e-06
2999.3341332086825	1.7782794100389227e-06
2981.875984026065	2.1134890398366474e-06
2958.358809003764	2.511886431509582e-06
2926.578386933642	2.9853826189179636e-06
2884.3267154537693	3.5481338923357534e-06
2836.668742683331	4.216965034285822e-06
2791.789081425691	5.011872336272725e-06
2757.0340264951524	5.95662143529011e-06
2736.9069659607826	7.079457843841388e-06
2719.148556853564	8.413951416451948e-06
2698.9242948134665	1e-05       
2675.781243187716	1.188502227437019e-05
2650.3947357448856	1.4125375446227555e-05
2626.5791127485686	1.678804018122562e-05
2601.91764077712	1.9952623149688786e-05
2574.9427166614664	2.371373705661655e-05
2546.8029752418647	2.818382931264455e-05
2520.6715152133734	3.349654391578279e-05
2499.1879261165536	3.981071705534977e-05
2482.275473032811	4.731512589614803e-05
2468.2710792282874	5.623413251903491e-05
2455.5251995992676	6.683439175686148e-05
2442.2259701650096	7.943282347242821e-05
2429.2012757276175	9.440608762859246e-05
2418.1745686580634	0.00011220184543019629
2408.197142706894	0.0001333521432163324
2398.0653657038183	0.00015848931924611142
2388.9454488471533	0.00018836490894898024
2380.538866421393	0.00022387211385683424
2371.883062414023	0.0002660725059798809
2362.2444921329825	0.0003162277660168379
2350.721763297386	0.00037583740428844437
2337.2346334417202	0.0004466835921509635
2321.8288264397333	0.0005308844442309889
2303.358818890804	0.000630957344480193
2281.071730951627	0.0007498942093324559
2254.7225163478743	0.0008912509381337458
2224.646171976945	0.0010592537251772895
2190.8703607508182	0.0012589254117941673
2154.202025021962	0.0014962356560944345
2116.463152222596	0.0017782794100389225
2083.574660242442	0.0021134890398366475
2058.7627559725993	0.002511886431509582
2037.8921338381192	0.0029853826189179603
2020.4296785134416	0.0035481338923357567
2005.8335053666044	0.004216965034285822
1993.7421774168527	0.0050118723362727255
1982.6277952015264	0.005956621435290103
1972.776433586195	0.00707945784384138
1964.5051794744002	0.008413951416451957
1957.9      	0.01        
1952.2064633345553	0.01188502227437019
1949.1859800421744	0.014125375446227554
1948.7390200906127	0.016788040181225587
1950.3804111668348	0.01995262314968883
1952.6068633738955	0.023713737056616554
1956.3117197564784	0.02818382931264455
1961.9186135264515	0.033496543915782793
1969.1519021520899	0.03981071705534969
1977.4416385842517	0.04731512589614813
1985.8276992929414	0.056234132519034905
1996.353518909487	0.06683439175686148
2008.6879886136703	0.07943282347242821
2022.658975145865	0.09440608762859228
2038.0942161379348	0.11220184543019629
2055.4621614002726	0.1333521432163324
2074.9462755433615	0.1584893192461114
2096.1828759779796	0.18836490894898023
2118.856555416786	0.22387211385683378
2142.549403168289	0.26607250597988086
2166.852015314035	0.3162277660168379
2191.8288343669255	0.3758374042884443
2217.1152258289544	0.4466835921509634
2242.4001031844873	0.5308844442309879
2267.063739230158	0.630957344480193
2290.078566215597	0.7498942093324559
2311.6848120126497	0.8912509381337458
2331.396557475031	1.0592537251772898
2348.759981624061	1.2589254117941662
2361.7112269829313	1.4962356560944328
2371.458571930105	1.7782794100389228
2378.7392646571675	2.1134890398366473
2383.8862909415107	2.511886431509582
2387.337195358216	2.9853826189179573
2389.2873770174924	3.548133892335753
2390.6489617593	4.216965034285823
2391.5275137393596	5.011872336272725
2392.0373933878527	5.956621435290109
2392.2751145752663	7.079457843841373
2392.368949088751	8.413951416451948
2392.4      	10.0        
