# T(K)	P(bar)
3131.0      	1e-08       
3130.3844825226547	1.1885022274370215e-08
3129.652491684239	1.4125375446227554e-08
3128.7627757274754	1.6788040181225588e-08
3127.6962083034814	1.9952623149688826e-08
3126.503466049699	2.3713737056616554e-08
3125.135780887668	2.818382931264461e-08
3123.4370973572372	3.3496543915782795e-08
3121.424725628558	3.981071705534969e-08
3119.1325634405184	4.731512589614813e-08
3116.4678338695326	5.6234132519034905e-08
3113.322198632405	6.683439175686162e-08
3109.685885701862	7.94328234724282e-08
3105.493515660985	9.440608762859226e-08
3100.6478852209393	1.1220184543019653e-07
3095.302205560707	1.333521432163324e-07
3089.2468185954986	1.584893192461114e-07
3082.5385806476224	1.883649089489802e-07
3075.230496865842	2.2387211385683422e-07
3067.412654846827	2.6607250597988136e-07
3059.632109029375	3.162277660168379e-07
3051.950941200025	3.7583740428844433e-07
3044.550190275481	4.466835921509635e-07
3037.5923062250017	5.308844442309889e-07
3031.3672990441455	6.309573444801942e-07
3025.655134461903	7.498942093324558e-07
3019.8422953986637	8.912509381337459e-07
3013.5717029324073	1.0592537251772896e-06
3006.3448038435004	1.2589254117941687e-06
2996.883415018457	1.4962356560944327e-06
2984.2331850639966	1.7782794100389227e-06
2967.5161207190276	2.1134890398366474e-06
2945.626814109425	2.511886431509582e-06
2917.217042864922	2.9853826189179636e-06
2882.19874812024	3.5481338923357534e-06
2845.2143165726734	4.216965034285822e-06
2812.0418503245805	5.011872336272725e-06
2787.5187190419356	5.95662143529011e-06
2773.6516497761295	7.079457843841388e-06
2762.271331219882	8.413951416451948e-06
2749.8190172884442	1e-05       
2735.800942246188	1.188502227437019e-05
2720.360913883632	1.4125375446227555e-05
2705.212615977778	1.678804018122562e-05
2690.475807186529	1.9952623149688786e-05
2675.7569925797607	2.371373705661655e-05
2660.9054225252694	2.818382931264455e-05
2645.6704138588093	3.349654391578279e-05
2630.6550021244734	3.981071705534977e-05
2615.631558664765	4.731512589614803e-05
2600.831243161698	5.623413251903491e-05
2586.1399013332853	6.683439175686148e-05
2570.770133184711	7.943282347242821e-05
2553.663821082759	9.440608762859246e-05
2534.799333865391	0.00011220184543019629
2513.232142493258	0.0001333521432163324
2488.051500805586	0.00015848931924611142
2460.298650371079	0.00018836490894898024
2429.2264975025328	0.00022387211385683424
2393.2741771661003	0.0002660725059798809
2350.3897318162435	0.0003162277660168379
2297.7985428718175	0.00037583740428844437
2232.4557240883346	0.0004466835921509635
2159.987389362056	0.0005308844442309889
2091.908743986234	0.000630957344480193
2036.8188668610353	0.0007498942093324559
2000.858996474758	0.0008912509381337458
1979.3481041977252	0.0010592537251772895
1963.7975028750184	0.0012589254117941673
1953.094142348005	0.0014962356560944345
1946.1306673344468	0.0017782794100389225
1942.1777235868321	0.0021134890398366475
1939.7380516987187	0.002511886431509582
1938.2937277308831	0.0029853826189179603
1937.6238534540237	0.0035481338923357567
1937.3776388481706	0.004216965034285822
1937.0656045784995	0.0050118723362727255
1936.8163098971756	0.005956621435290103
1937.0586675470652	0.00707945784384138
1937.988980616	0.008413951416451957
1939.6      	0.01        
1941.6004318013725	0.01188502227437019
1945.1565449051075	0.014125375446227554
1950.4924067259315	0.016788040181225587
1957.5721974232256	0.01995262314968883
1965.603328598695	0.023713737056616554
1975.5007057619734	0.02818382931264455
1987.8310441600302	0.033496543915782793
2002.5868694154058	0.03981071705534969
2019.5484585728893	0.04731512589614813
2037.966442372348	0.056234132519034905
2059.307037818974	0.06683439175686148
2083.2148960800105	0.07943282347242821
2109.2034112544197	0.09440608762859228
2136.6039249177074	0.11220184543019629
2164.855782544444	0.1333521432163324
2194.3541449154727	0.1584893192461114
2224.361723287183	0.18836490894898023
2254.2776290840416	0.22387211385683378
2283.5546497062687	0.26607250597988086
2311.1429413516153	0.3162277660168379
2337.2288343669256	0.3758374042884443
2361.1602094925524	0.4466835921509634
2382.40039366297	0.5308844442309879
2400.1298444945223	0.630957344480193
2414.015299624009	0.7498942093324559
2425.351404940876	0.8912509381337458
2434.207371097843	1.0592537251772898
2440.7184378320653	1.2589254117941662
2444.4409514681483	1.4962356560944328
2446.795259276572	1.7782794100389228
2448.301555500608	2.1134890398366473
2449.2097150150944	2.511886431509582
2449.6912365616113	2.9853826189179573
2449.9264852420993	3.548133892335753
2450.0534972685214	4.216965034285823
2450.1325019627657	5.011872336272725
2450.1875355373822	5.956621435290109
2450.108295141578	7.079457843841373
2450.1      	8.413951416451948
2450.0      	10.0        
