# T(K)	P(bar)
3033.7      	1e-08       
3033.315301576659	1.1885022274370215e-08
3032.9262458421194	1.4125375446227554e-08
3032.4982041819117	1.6788040181225588e-08
3031.9777249820886	1.9952623149688826e-08
3031.2620796298193	2.3713737056616554e-08
3030.497656048704	2.818382931264461e-08
3029.6185486786185	3.3496543915782795e-08
3028.5569860734618	3.981071705534969e-08
3027.2505501579367	4.731512589614813e-08
3025.7614365741506	5.6234132519034905e-08
3023.9698277899456	6.683439175686162e-08
3021.831531421117	7.94328234724282e-08
3019.2725599186238	9.440608762859226e-08
3016.198590147293	1.1220184543019653e-07
3012.634803707138	1.333521432163324e-07
3008.3680923276406	1.584893192461114e-07
3003.327102510902	1.883649089489802e-07
2997.3906502468785	2.2387211385683422e-07
2990.370547209396	2.6607250597988136e-07
2981.9026148738676	3.162277660168379e-07
2971.8590709856035	3.7583740428844433e-07
2960.011160869958	4.466835921509635e-07
2946.1245337174087	5.308844442309889e-07
2930.128629189386	6.309573444801942e-07
2912.4362510907317	7.498942093324558e-07
2893.541959512933	8.912509381337459e-07
2873.103960500074	1.0592537251772896e-06
2850.330095421727	1.2589254117941687e-06
2825.2806807455877	1.4962356560944327e-06
2799.1644738386226	1.7782794100389227e-06
2766.9424464774997	2.1134890398366474e-06
2720.375886824505	2.511886431509582e-06
2645.6597935232844	2.9853826189179636e-06
2518.7516807964093	3.5481338923357534e-06
2419.7414745801684	4.216965034285822e-06
2362.1770819309236	5.011872336272725e-06
2347.214170256977	5.95662143529011e-06
2343.4898716541607	7.079457843841388e-06
2340.686781893721	8.413951416451948e-06
2338.2304822565966	1e-05       
2336.115732965709	1.188502227437019e-05
2334.3343398618927	1.4125375446227555e-05
2332.460323626117	1.678804018122562e-05
2330.6610770650273	1.9952623149688786e-05
2329.060354120622	2.371373705661655e-05
2327.6084816295242	2.818382931264455e-05
2326.077630068294	3.349654391578279e-05
2324.6145899505896	3.981071705534977e-05
2323.0222017289584	4.731512589614803e-05
2321.0851980862044	5.623413251903491e-05
2318.5775951087976	6.683439175686148e-05
2315.232878724134	7.943282347242821e-05
2310.489824679526	9.440608762859246e-05
2302.8231928132113	0.00011220184543019629
2290.5357140274737	0.0001333521432163324
2271.5017614927146	0.00015848931924611142
2241.5475518169437	0.00018836490894898024
2188.787695504559	0.00022387211385683424
2118.2254090622077	0.0002660725059798809
2043.8224606649114	0.0003162277660168379
1987.850477010443	0.00037583740428844437
1958.7058745637173	0.0004466835921509635
1937.2607030332774	0.0005308844442309889
1921.2203421899571	0.000630957344480193
1909.5063871252617	0.0007498942093324559
1901.5775961046793	0.0008912509381337458
1896.9232166581164	0.0010592537251772895
1893.4699853151883	0.0012589254117941673
1891.0125928135067	0.0014962356560944345
1889.3405868536452	0.0017782794100389225
1888.233762604313	0.0021134890398366475
1887.4911194927058	0.002511886431509582
1887.0619257447863	0.0029853826189179603
1886.9253821819923	0.0035481338923357567
1887.0111805759148	0.004216965034285822
1887.1671977107503	0.0050118723362727255
1887.2612300342748	0.005956621435290103
1887.4992597483695	0.00707945784384138
1887.9361432156	0.008413951416451957
1888.5      	0.01        
1888.7308190540045	0.01188502227437019
1889.5665116420648	0.014125375446227554
1891.2426117267894	0.016788040181225587
1893.870616750252	0.01995262314968883
1897.2102950608435	0.023713737056616554
1902.1354700785514	0.02818382931264455
1909.236153338869	0.033496543915782793
1918.6871253388442	0.03981071705534969
1930.4922432655378	0.04731512589614813
1944.364511914492	0.056234132519034905
1961.9104505742848	0.06683439175686148
1983.1846857888297	0.07943282347242821
2008.077609166288	0.09440608762859228
2036.1851960159456	0.11220184543019629
2067.293115752489	0.1333521432163324
2102.369153199806	0.1584893192461114
2140.527710380512	0.18836490894898023
2181.152190547352	0.22387211385683378
2223.751452161165	0.26607250597988086
2266.4139762151117	0.3162277660168379
2309.410652383361	0.3758374042884443
2351.927855079833	0.4466835921509634
2393.209746199357	0.5308844442309879
2431.8205502325154	0.630957344480193
2466.2028252075115	0.7498942093324559
2497.151290270467	0.8912509381337458
2524.1169654696755	1.0592537251772898
2546.751114727118	1.2589254117941662
2562.9595595175606	1.4962356560944328
2574.834210464551	1.7782794100389228
2583.386495388358	2.1134890398366473
2589.1411484490577	2.511886431509582
2592.8328136390214	2.9853826189179573
2594.862872098192	3.548133892335753
2596.1954644907787	4.216965034285823
2597.0275137393596	5.011872336272725
2597.5373933878527	5.956621435290109
2597.7751145752663	7.079457843841373
2597.868949088751	8.413951416451948
2598.0      	10.0        
