# T(K)	P(bar)
3128.6      	1e-08       
3128.523060315332	1.1885022274370215e-08
3128.445249168424	1.4125375446227554e-08
3128.366367363652	1.6788040181225588e-08
3128.272827773798	1.9952623149688826e-08
3128.113795473293	2.3713737056616554e-08
3127.8892968146115	2.818382931264461e-08
3127.7030914464367	3.3496543915782795e-08
3127.4892465183652	3.981071705534969e-08
3127.168536875355	4.731512589614813e-08
3126.855039278769	5.6234132519034905e-08
3126.4174569474862	6.683439175686162e-08
3125.9040239982605	7.94328234724282e-08
3125.3258020881312	9.440608762859226e-08
3124.675749817831	1.1220184543019653e-07
3123.823540016924	1.333521432163324e-07
3122.8531931079197	1.584893192461114e-07
3121.7201921151327	1.883649089489802e-07
3120.379693237927	2.2387211385683422e-07
3118.7842152748626	2.6607250597988136e-07
3116.949214026782	3.162277660168379e-07
3114.76936325774	3.7583740428844433e-07
3112.2460984050213	4.466835921509635e-07
3109.3501452392416	5.308844442309889e-07
3105.883052632182	6.309573444801942e-07
3101.9488629043694	7.498942093324558e-07
3097.5138363189308	8.912509381337459e-07
3092.5070364235057	1.0592537251772896e-06
3086.772225912205	1.2589254117941687e-06
3079.482303374877	1.4962356560944327e-06
3071.041428069895	1.7782794100389227e-06
3061.7545133404	2.1134890398366474e-06
3051.969128026412	2.511886431509582e-06
3042.1781899138996	2.9853826189179636e-06
3033.7710362037333	3.5481338923357534e-06
3025.643278610815	4.216965034285822e-06
3016.9022585798293	5.011872336272725e-06
3006.4187190419357	5.95662143529011e-06
2992.5516497761296	7.079457843841388e-06
2972.8974405697836	8.413951416451948e-06
2945.8573248407642	1e-05       
2909.131020444014	1.188502227437019e-05
2860.6783407301805	1.4125375446227555e-05
2802.74000544078	1.678804018122562e-05
2750.872224753599	1.9952623149688786e-05
2709.816876276251	2.371373705661655e-05
2679.9860119828163	2.818382931264455e-05
2656.863273659587	3.349654391578279e-05
2634.8406697825603	3.981071705534977e-05
2609.306542607704	4.731512589614803e-05
2579.3279029874816	5.623413251903491e-05
2544.60162040748	6.683439175686148e-05
2506.455926401434	7.943282347242821e-05
2464.2106832980617	9.440608762859246e-05
2414.8328673028054	0.00011220184543019629
2358.4803562331454	0.0001333521432163324
2295.568888689248	0.00015848931924611142
2226.5405524810403	0.00018836490894898024
2156.918294505572	0.00022387211385683424
2089.893618848165	0.0002660725059798809
2029.7692196153885	0.0003162277660168379
1981.2740434233158	0.00037583740428844437
1950.3466594439449	0.0004466835921509635
1927.230146505289	0.0005308844442309889
1909.7223764089526	0.000630957344480193
1896.8524223184675	0.0007498942093324559
1888.2028321141959	0.0008912509381337458
1883.745764963636	0.0010592537251772895
1881.2045862599716	0.0012589254117941673
1880.2      	0.0014962356560944345
1880.3252531864218	0.0017782794100389225
1881.194900810897	0.0021134890398366475
1882.1794940660916	0.002511886431509582
1883.2903712760683	0.0029853826189179603
1884.4553505478902	0.0035481338923357567
1885.555902879574	0.004216965034285822
1886.3359885537513	0.0050118723362727255
1886.8673802056487	0.005956621435290103
1887.2594077986955	0.00707945784384138
1887.5194490308	0.008413951416451957
1887.6      	0.01        
1887.061422207323	0.01188502227437019
1886.6809966736957	0.014125375446227554
1886.7690610907844	0.016788040181225587
1887.463033357215	0.01995262314968883
1888.417227160241	0.023713737056616554
1890.5367974587575	0.02818382931264455
1894.3557108836887	0.033496543915782793
1900.1027068184121	0.03981071705534969
1907.8281621770254	0.04731512589614813
1917.076341276328	0.056234132519034905
1929.7299913474737	0.06683439175686148
1945.6403611995106	0.07943282347242821
1964.896926915404	0.09440608762859228
1987.573173691347	0.11220184543019629
2014.744359168427	0.1333521432163324
2046.2470060032506	0.1584893192461114
2082.0203784812534	0.18836490894898023
2121.928359266492	0.22387211385683378
2165.4051337599903	0.26607250597988086
2211.6884975770977	0.3162277660168379
2259.0719258678814	0.3758374042884443
2306.334543528369	0.4466835921509634
2352.218705072775	0.5308844442309879
2393.981411475986	0.630957344480193
2429.8647135446286	0.7498942093324559
2461.261751481098	0.8912509381337458
2487.8751135301763	1.0592537251772898
2509.6783021164297	1.2589254117941662
2524.6459090281783	1.4962356560944328
2535.3370548986077	1.7782794100389228
2542.977845849522	2.1134890398366473
2548.2045767773598	2.511886431509582
2551.735734785151	2.9853826189179573
2553.762872098192	3.548133892335753
2555.255956296343	4.216965034285823
2556.2925176648905	5.011872336272725
2556.94985785047	5.956621435290109
2557.266819433689	7.079457843841373
2557.4378981775017	8.413951416451948
2557.6      	10.0        
