# T(K)	P(bar)
3083.2      	1e-08       
3050.962272124036	1.1885022274370215e-08
3027.448039611256	1.4125375446227554e-08
3004.3967404599257	1.6788040181225588e-08
2976.228588116717	1.9952623149688826e-08
2945.3763218188747	2.3713737056616554e-08
2914.8169451335607	2.818382931264461e-08
2885.847186019249	3.3496543915782795e-08
2860.06876324885	3.981071705534969e-08
2838.9212331416884	4.731512589614813e-08
2824.1868461021213	5.6234132519034905e-08
2813.056538493864	6.683439175686162e-08
2803.5489485440958	7.94328234724282e-08
2794.826553450789	9.440608762859226e-08
2786.048679930248	1.1220184543019653e-07
2777.216687448125	1.333521432163324e-07
2768.006397919257	1.584893192461114e-07
2758.4064888922794	1.883649089489802e-07
2748.5140980751466	2.2387211385683422e-07
2738.6221347041487	2.6607250597988136e-07
2729.054272471708	3.162277660168379e-07
2719.4754105814754	3.7583740428844433e-07
2709.8264001546445	4.466835921509635e-07
2699.9913316050656	5.308844442309889e-07
2689.905244020894	6.309573444801942e-07
2679.407581113435	7.498942093324558e-07
2668.174129586697	8.912509381337459e-07
2655.767591058765	1.0592537251772896e-06
2641.6171470954023	1.2589254117941687e-06
2626.5719878162354	1.4962356560944327e-06
2610.240770221482	1.7782794100389227e-06
2591.8389583343187	2.1134890398366474e-06
2570.869106752823	2.511886431509582e-06
2547.033790200231	2.9853826189179636e-06
2520.5541971586053	3.5481338923357534e-06
2489.6846444895227	4.216965034285822e-06
2452.811449920395	5.011872336272725e-06
2408.348810046268	5.95662143529011e-06
2355.257744857182	7.079457843841388e-06
2293.6443908455844	8.413951416451948e-06
2223.9615104640584	1e-05       
2151.327682515377	1.188502227437019e-05
2083.851766708441	1.4125375446227555e-05
2039.1877130891185	1.678804018122562e-05
2009.579212776051	1.9952623149688786e-05
1987.1380549416263	2.371373705661655e-05
1969.5587595858199	2.818382931264455e-05
1956.182263517338	3.349654391578279e-05
1948.4820523715246	3.981071705534977e-05
1943.6078896661913	4.731512589614803e-05
1940.9051161194993	5.623413251903491e-05
1939.8740958203812	6.683439175686148e-05
1940.2722763423649	7.943282347242821e-05
1941.5886215201353	9.440608762859246e-05
1943.3948897191228	0.00011220184543019629
1945.5967857506741	0.0001333521432163324
1948.1300126634371	0.00015848931924611142
1951.0389516608218	0.00018836490894898024
1954.102292926582	0.00022387211385683424
1957.4145597679912	0.0002660725059798809
1960.9087489165408	0.0003162277660168379
1964.459513573135	0.00037583740428844437
1968.1801011195253	0.0004466835921509635
1972.1470923550187	0.0005308844442309889
1976.3555073722023	0.000630957344480193
1980.8264320452959	0.0007498942093324559
1985.631759936558	0.0008912509381337458
1990.5476971844162	0.0010592537251772895
1995.590566338183	0.0012589254117941673
2000.730975778276	0.0014962356560944345
2005.894585851975	0.0017782794100389225
2010.717177224065	0.0021134890398366475
2015.0885898231638	0.002511886431509582
2019.3853365938462	0.0029853826189179603
2023.670637827577	0.0035481338923357567
2028.013056125614	0.004216965034285822
2032.381535901008	0.0050118723362727255
2037.0962621250383	0.005956621435290103
2042.7678598732614	0.00707945784384138
2049.7032501723997	0.008413951416451957
2058.0      	0.01        
2067.6944002681894	0.01188502227437019
2079.8528905363546	0.014125375446227554
2094.764649451177	0.016788040181225587
2112.6323894063235	0.01995262314968883
2133.306588471888	0.023713737056616554
2157.715475231721	0.02818382931264455
2186.245622221677	0.033496543915782793
2218.721324831845	0.03981071705534969
2254.699172300875	0.04731512589614813
2292.554007088698	0.056234132519034905
2331.3336164111374	0.06683439175686148
2369.4726744025	0.07943282347242821
2405.135697681566	0.09440608762859228
2436.465544399086	0.11220184543019629
2459.8543773523675	0.1333521432163324
2478.194842238028	0.1584893192461114
2492.1646050141753	0.18836490894898023
2502.2933344150183	0.22387211385683378
2509.233663554347	0.26607250597988086
2513.3933696086387	0.3162277660168379
2516.33063674226	0.3758374042884443
2518.3118950604185	0.4466835921509634
2519.592015746519	0.5308844442309879
2520.301193779781	0.630957344480193
2520.6654720842794	0.7498942093324559
2520.889538789369	0.8912509381337458
2521.02418519395	1.0592537251772898
2521.1      	1.2589254117941662
2521.1      	1.4962356560944328
2521.0401896289372	1.7782794100389228
2521.0      	2.1134890398366473
2520.981714164151	2.511886431509582
2520.901460573065	2.9853826189179573
2520.8245049193006	3.548133892335753
2520.8      	4.216965034285823
2520.7349960744687	5.011872336272725
2520.5750710747648	5.956621435290109
2520.416590283156	7.079457843841373
2520.262101822498	8.413951416451948
2520.1      	10.0        
