# T(K)	P(bar)
3098.8      	1e-08       
3097.568965045309	1.1885022274370215e-08
3097.2      	1.4125375446227554e-08
3097.099102090956	1.6788040181225588e-08
3096.859241660696	1.9952623149688826e-08
3096.62069320994	2.3713737056616554e-08
3096.3190624194817	2.818382931264461e-08
3095.9092743393094	3.3496543915782795e-08
3095.433869777548	3.981071705534969e-08
3094.93707375071	4.731512589614813e-08
3094.310078557537	5.6234132519034905e-08
3093.62618542123	6.683439175686162e-08
3092.7926125684467	7.94328234724282e-08
3091.773378915246	9.440608762859226e-08
3090.560317883723	1.1220184543019653e-07
3089.1657927549672	1.333521432163324e-07
3087.478726267858	1.584893192461114e-07
3085.4853362014824	1.883649089489802e-07
3083.1554785044755	2.2387211385683422e-07
3080.443165967267	2.6607250597988136e-07
3077.2361245468687	3.162277660168379e-07
3073.4979175381577	3.7583740428844433e-07
3069.163200077322	4.466835921509635e-07
3064.1638740278495	5.308844442309889e-07
3058.4904497617526	6.309573444801942e-07
3052.191454251205	7.498942093324558e-07
3045.2812156890277	8.912509381337459e-07
3038.2893696779565	1.0592537251772896e-06
3031.8585735477013	1.2589254117941687e-06
3024.3359939081174	1.4962356560944327e-06
3016.7385836358385	1.7782794100389227e-06
3009.7906669963513	2.1134890398366474e-06
3003.921135684904	2.511886431509582e-06
2999.1861738108205	2.9853826189179636e-06
2994.7967804001173	3.5481338923357534e-06
2989.5481966664574	4.216965034285822e-06
2983.30732531386	5.011872336272725e-06
2975.8416578737515	5.95662143529011e-06
2966.5705315646123	7.079457843841388e-06
2956.705567551144	8.413951416451948e-06
2948.21364877161	1e-05       
2942.5095025958376	1.188502227437019e-05
2940.7863676553707	1.4125375446227555e-05
2942.894635920619	1.678804018122562e-05
2946.678340803849	1.9952623149688786e-05
2952.3571379591467	2.371373705661655e-05
2958.362430510926	2.818382931264455e-05
2961.267033784855	3.349654391578279e-05
2959.110974664027	3.981071705534977e-05
2957.9391436804567	4.731512589614803e-05
2957.2550478139115	5.623413251903491e-05
2956.3702442417894	6.683439175686148e-05
2954.060797214283	7.943282347242821e-05
2953.398869408836	9.440608762859246e-05
2956.73604500222	0.00011220184543019629
2961.543928621903	0.0001333521432163324
2964.7516274399577	0.00015848931924611142
2966.0881669792966	0.00018836490894898024
2969.4227515118987	0.00022387211385683424
2972.840508879992	0.0002660725059798809
2974.870738882604	0.0003162277660168379
2973.9471328257455	0.00037583740428844437
2970.3815697604546	0.0004466835921509635
2965.8669283459394	0.0005308844442309889
2957.2829693286444	0.000630957344480193
2942.6836990006977	0.0007498942093324559
2921.540256279145	0.0008912509381337458
2896.542234698374	0.0010592537251772895
2862.9054839793494	0.0012589254117941673
2819.646471123262	0.0014962356560944345
2765.723824565393	0.0017782794100389225
2699.235310730514	0.0021134890398366475
2614.481056080933	0.002511886431509582
2475.0727541210217	0.0029853826189179603
2217.180866694416	0.0035481338923357567
1815.6988587169542	0.004216965034285822
1850.5686883526898	0.0050118723362727255
1858.2673802056488	0.005956621435290103
1863.6409015079355	0.00707945784384138
1874.1423133427998	0.008413951416451957
1885.5      	0.01        
1897.27177175423	0.01188502227437019
1910.4361463573873	0.014125375446227554
1924.75656826978	0.016788040181225587
1939.8949476023374	0.01995262314968883
1955.0825323005024	0.023713737056616554
1970.376644630784	0.02818382931264455
1986.1362181867016	0.033496543915782793
2002.0822973409106	0.03981071705534969
2017.925961545279	0.04731512589614813
2033.1305949797256	0.056234132519034905
2048.0413776804335	0.06683439175686148
2062.779940617149	0.07943282347242821
2077.10170562721	0.09440608762859228
2090.7536391031445	0.11220184543019629
2103.1813688241955	0.1333521432163324
2114.9262644975834	0.1584893192461114
2125.910939064546	0.18836490894898023
2136.057779220024	0.22387211385683378
2145.3115514057963	0.26607250597988086
2153.386739217277	0.3162277660168379
2160.79191022678	0.3758374042884443
2167.518583508954	0.4466835921509634
2173.5645581693025	0.5308844442309879
2178.68639952064	0.630957344480193
2182.9175051167003	0.7498942093324559
2186.40123699801	0.8912509381337458
2189.1530002366476	1.0592537251772898
2191.2682618225203	1.2589254117941662
2192.431547333796	1.4962356560944328
2193.1186725974403	1.7782794100389228
2193.5157435770634	2.1134890398366473
2193.7182858358487	2.511886431509582
2193.7985394269353	2.9853826189179573
2193.8      	3.548133892335753
2193.8      	4.216965034285823
2193.8      	5.011872336272725
2193.8      	5.956621435290109
2193.8      	7.079457843841373
2193.731050911249	8.413951416451948
2193.7      	10.0        
