# T(K)	P(bar)
3137.1      	1e-08       
3136.3306031533184	1.1885022274370215e-08
3135.3882391895113	1.4125375446227554e-08
3134.2618778184315	1.6788040181225588e-08
3132.928277737975	1.9952623149688826e-08
3131.3379547329314	2.3713737056616554e-08
3129.5143745168903	2.818382931264461e-08
3127.3463716965466	3.3496543915782795e-08
3124.803218665289	3.981071705534969e-08
3121.861771410067	4.731512589614813e-08
3118.491672246762	5.6234132519034905e-08
3114.5846268782157	6.683439175686162e-08
3110.0784982703085	7.94328234724282e-08
3104.9539935321654	9.440608762859226e-08
3099.221430476755	1.1220184543019653e-07
3092.946067397352	1.333521432163324e-07
3086.0723517554366	1.584893192461114e-07
3078.6849146979926	1.883649089489802e-07
3070.962527542049	2.2387211385683422e-07
3063.304233319341	2.6607250597988136e-07
3056.5534008470854	3.162277660168379e-07
3050.3223869196077	3.7583740428844433e-07
3044.6126427066106	4.466835921509635e-07
3039.325217858862	5.308844442309889e-07
3034.1245789482737	6.309573444801942e-07
3028.4223984197633	7.498942093324558e-07
3021.825985083712	8.912509381337459e-07
3013.8494063381104	1.0592537251772896e-06
3003.726248671738	1.2589254117941687e-06
2988.8361941274084	1.4962356560944327e-06
2966.9185953415717	1.7782794100389227e-06
2937.2542070175514	2.1134890398366474e-06
2900.2365078509306	2.511886431509582e-06
2858.263879712865	2.9853826189179636e-06
2828.9628594955157	3.5481338923357534e-06
2809.107540832758	4.216965034285822e-06
2794.63468203197	5.011872336272725e-06
2781.531183504553	5.95662143529011e-06
2767.743354634552	7.079457843841388e-06
2753.820214936102	8.413951416451948e-06
2739.7467697907186	1e-05       
2725.7320940955433	1.188502227437019e-05
2711.9541840447573	1.4125375446227555e-05
2698.992238413975	1.678804018122562e-05
2685.6767970543356	1.9952623149688786e-05
2671.310443953301	2.371373705661655e-05
2655.7551166148437	2.818382931264455e-05
2639.140979738144	3.349654391578279e-05
2622.200515217354	3.981071705534977e-05
2603.546848907276	4.731512589614803e-05
2583.0768784036645	5.623413251903491e-05
2560.946899910118	6.683439175686148e-05
2538.0913379482495	7.943282347242821e-05
2515.738875508929	9.440608762859246e-05
2493.4554268925904	0.00011220184543019629
2471.8074996959804	0.0001333521432163324
2451.1880232288536	0.00015848931924611142
2431.6902699490865	0.00018836490894898024
2411.685095977216	0.00022387211385683424
2389.0675434580626	0.0002660725059798809
2362.10029418678	0.0003162277660168379
2328.7752594904787	0.00037583740428844437
2288.5464066451314	0.0004466835921509635
2242.269283459391	0.0005308844442309889
2193.6156902926473	0.000630957344480193
2146.8030076338578	0.0007498942093324559
2107.9599405128233	0.0008912509381337458
2078.781461810062	0.0010592537251772895
2055.329084411073	0.0012589254117941673
2037.4194629764825	0.0014962356560944345
2024.5702414424047	0.0017782794100389225
2016.031882947557	0.0021134890398366475
2009.5200754343523	0.002511886431509582
2004.322613902678	0.0029853826189179603
2000.2593305383211	0.0035481338923357567
1996.9763884817044	0.004216965034285822
1993.8560457849942	0.0050118723362727255
1990.8120286632823	0.005956621435290103
1988.0645895601085	0.00707945784384138
1985.6748761684	0.008413951416451957
1983.5      	0.01        
1980.8840507212822	0.01188502227437019
1978.8407308737505	0.014125375446227554
1977.6654694546078	0.016788040181225587
1977.4679305655063	0.01995262314968883
1977.8655113167672	0.023713737056616554
1980.1475006441462	0.02818382931264455
1985.2186135264515	0.033496543915782793
1993.3102416347576	0.03981071705534969
2004.321451235087	0.04731512589614813
2017.4883502917212	0.056234132519034905
2034.1453644692579	0.06683439175686148
2053.4202412082072	0.07943282347242821
2074.7187016543876	0.09440608762859228
2097.3919025931086	0.11220184543019629
2121.707025960382	0.1333521432163324
2147.3453900829445	0.1584893192461114
2173.703489596602	0.18836490894898023
2200.3651382647245	0.22387211385683378
2227.0893941460495	0.26607250597988086
2252.6462565472957	0.3162277660168379
2277.3655584452795	0.3758374042884443
2300.8709898115485	0.4466835921509634
2322.8457689870206	0.5308844442309879
2342.466361240605	0.630957344480193
2359.203652445732	0.7498942093324559
2373.8660277016775	0.8912509381337458
2386.3924456013888	1.0592537251772898
2396.809570935123	1.2589254117941662
2403.7892840027775	1.4962356560944328
2408.8690015216466	1.7782794100389228
2412.550341732406	2.1134890398366473
2415.0840025528305	2.511886431509582
2416.7693279656405	2.9853826189179573
2417.6304458876966	3.548133892335753
2418.1674863426074	4.216965034285823
2418.432501962766	5.011872336272725
2418.5      	5.956621435290109
2418.5      	7.079457843841373
2418.5      	8.413951416451948
2418.4      	10.0        
