# T(K)	P(bar)
3036.8      	1e-08       
3034.7995681986276	1.1885022274370215e-08
3034.2      	1.4125375446227554e-08
3034.099102090956	1.6788040181225588e-08
3033.845655547595	1.9952623149688826e-08
3033.5275909465863	2.3713737056616554e-08
3033.219062419482	2.818382931264461e-08
3032.857728616091	3.3496543915782795e-08
3032.4061814071397	3.981071705534969e-08
3031.8370737507103	4.731512589614813e-08
3031.210078557537	5.6234132519034905e-08
3030.4624282458108	6.683439175686162e-08
3029.592612568447	7.94328234724282e-08
3028.5516041762626	9.440608762859226e-08
3027.258113321708	1.1220184543019653e-07
3025.7861145746874	1.333521432163324e-07
3024.0212795838515	1.584893192461114e-07
3021.949098208678	1.883649089489802e-07
3019.507432490165	2.2387211385683422e-07
3016.555798258496	2.6607250597988136e-07
3013.117276300217	3.162277660168379e-07
3009.0938326391897	3.7583740428844433e-07
3004.3825312324684	4.466835921509635e-07
2998.953650056014	5.308844442309889e-07
2993.201428230666	6.309573444801942e-07
2986.4268781037163	7.498942093324558e-07
2978.654444163445	8.912509381337459e-07
2970.623332544508	1.0592537251772896e-06
2963.2174991144925	1.2589254117941687e-06
2953.290796084939	1.4962356560944327e-06
2941.908823598443	1.7782794100389227e-06
2930.630120224501	2.1134890398366474e-06
2920.4617013999973	2.511886431509582e-06
2911.954820744864	2.9853826189179636e-06
2904.5524722528294	3.5481338923357534e-06
2896.8502731478575	4.216965034285822e-06
2888.2347605425944	5.011872336272725e-06
2877.806254579318	5.95662143529011e-06
2863.8599449177077	7.079457843841388e-06
2848.1275386285806	8.413951416451948e-06
2833.1523202911735	1e-05       
2821.156701492965	1.188502227437019e-05
2814.4897325748084	1.4125375446227555e-05
2815.5048247025197	1.678804018122562e-05
2821.3305680064145	1.9952623149688786e-05
2830.781532785997	2.371373705661655e-05
2842.3848722035045	2.818382931264455e-05
2853.636574319888	3.349654391578279e-05
2862.568819249031	3.981071705534977e-05
2872.7837315777456	4.731512589614803e-05
2883.7340368912123	5.623413251903491e-05
2894.6338421969203	6.683439175686148e-05
2903.951266411341	7.943282347242821e-05
2912.761269627524	9.440608762859246e-05
2924.267372822092	0.00011220184543019629
2936.418571583516	0.0001333521432163324
2946.67408759505	0.00015848931924611142
2954.3788449394738	0.00018836490894898024
2963.5369934260757	0.00022387211385683424
2972.978013917976	0.0002660725059798809
2981.3965322687272	0.0003162277660168379
2987.2561903736946	0.00037583740428844437
2990.8992656795353	0.0004466835921509635
2995.14008200454	0.0005308844442309889
2997.4252542773747	0.000630957344480193
2996.2564607539493	0.0007498942093324559
2991.371044064499	0.0008912509381337458
2983.8559059178565	0.0010592537251772895
2972.171552166431	0.0012589254117941673
2955.5511137620792	0.0014962356560944345
2933.687951020592	0.0017782794100389225
2907.914757786145	0.0021134890398366475
2878.550484796651	0.002511886431509582
2844.460416186666	0.0029853826189179603
2806.1027940920426	0.0035481338923357567
2764.5700639270935	0.004216965034285822
2722.2894203866717	0.0050118723362727255
2680.213321423052	0.005956621435290103
2638.277726421193	0.00707945784384138
2596.858790415201	0.008413951416451957
2556.1      	0.01        
2518.168735458592	0.01188502227437019
2480.136345022457	0.014125375446227554
2441.5191102804156	0.016788040181225587
2401.6537045087457	0.01995262314968883
2359.8282094761034	0.023713737056616554
2315.6045196151094	0.02818382931264455
2266.9047200918417	0.033496543915782793
2211.2216153026793	0.03981071705534969
2145.198245403932	0.04731512589614813
2064.4726142829004	0.056234132519034905
1971.8149170593051	0.06683439175686148
1889.8647414948775	0.07943282347242821
1831.540138223548	0.09440608762859228
1804.8122563819134	0.11220184543019629
1794.700252695841	0.1333521432163324
1791.7133923640279	0.1584893192461114
1793.7829935466646	0.18836490894898023
1799.417549148469	0.22387211385683378
1807.4747128619433	0.26607250597988086
1817.6022722682487	0.3162277660168379
1829.2613535092369	0.3758374042884443
1842.209285026611	0.4466835921509634
1856.1607628740471	0.5308844442309879
1870.5019186577915	0.630957344480193
1884.6453478557771	0.7498942093324559
1899.0823380166291	0.8912509381337458
1913.7258904928342	1.0592537251772898
1928.3827355649007	1.2589254117941662
1941.7217427608634	1.4962356560944328
1954.728521596437	1.7782794100389228
1967.5729907767154	2.1134890398366473
1980.2891620641549	2.511886431509582
1992.969229455769	2.9853826189179573
2004.9772325891522	3.548133892335753
2016.7710930096923	4.216965034285823
2028.120266936124	5.011872336272725
2038.820664439336	5.956621435290109
2048.487992727498	7.079457843841373
2057.9117888275996	8.413951416451948
2070.9      	10.0        
