# T(K)	P(bar)
3134.6      	1e-08       
3133.9075428379865	1.1885022274370215e-08
3133.0977408526633	1.4125375446227554e-08
3132.1291430911274	1.6788040181225588e-08
3130.9554499641777	1.9952623149688826e-08
3129.5241592596385	2.3713737056616554e-08
3127.9250777022794	2.818382931264461e-08
3126.0401888036736	3.3496543915782795e-08
3123.7862837765147	3.981071705534969e-08
3121.093234534712	4.731512589614813e-08
3118.0366329679932	5.6234132519034905e-08
3114.503412755311	6.683439175686162e-08
3110.389909700122	7.94328234724282e-08
3105.662867227083	9.440608762859226e-08
3100.3302487248166	1.1220184543019653e-07
3094.3647801184707	1.333521432163324e-07
3087.744691807455	1.584893192461114e-07
3080.4486767051885	1.883649089489802e-07
3072.5824508515307	2.2387211385683422e-07
3064.5252871380567	2.6607250597988136e-07
3056.950957276027	3.162277660168379e-07
3049.8611534474458	3.7583740428844433e-07
3043.3416394393303	4.466835921509635e-07
3037.3843219715204	5.308844442309889e-07
3031.8684928239263	6.309573444801942e-07
3026.122398419763	7.498942093324558e-07
3019.6602932677656	8.912509381337459e-07
3011.97033230786	1.0592537251772896e-06
3002.2626549770825	1.2589254117941687e-06
2987.9930193720993	1.4962356560944327e-06
2966.7568886811373	1.7782794100389227e-06
2937.2998822481336	2.1134890398366474e-06
2899.140501894325	2.511886431509582e-06
2853.235447793038	2.9853826189179636e-06
2816.5398366676454	3.5481338923357534e-06
2790.7767211103437	4.216965034285822e-06
2772.71465062772	5.011872336272725e-06
2758.4813256540833	5.95662143529011e-06
2744.376535200863	7.079457843841388e-06
2729.730724048594	8.413951416451948e-06
2714.260600545951	1e-05       
2698.0229055817676	1.188502227437019e-05
2681.1780838145783	1.4125375446227555e-05
2665.0927777908364	1.678804018122562e-05
2648.9871317185075	1.9952623149688786e-05
2632.0777008210043	2.371373705661655e-05
2614.0751110240176	2.818382931264455e-05
2594.7962398747322	3.349654391578279e-05
2574.929695118534	3.981071705534977e-05
2553.932536844509	4.731512589614803e-05
2531.7869740314877	5.623413251903491e-05
2508.70244241789	6.683439175686148e-05
2485.607972142831	7.943282347242821e-05
2462.451384579958	9.440608762859246e-05
2436.8672198484605	0.00011220184543019629
2408.331070967259	0.0001333521432163324
2376.422009516406	0.00015848931924611142
2341.3575016019863	0.00018836490894898024
2303.7917970030394	0.00022387211385683424
2263.929871838105	0.0002660725059798809
2222.9223135715215	0.0003162277660168379
2182.471328257457	0.00037583740428844437
2146.815697604548	0.0004466835921509635
2114.092044599083	0.0005308844442309889
2085.390175825165	0.000630957344480193
2061.8706302354244	0.0007498942093324559
2044.411272230506	0.0008912509381337458
2031.4114776594142	0.0010592537251772895
2020.4753550007813	0.0012589254117941673
2011.837845941252	0.0014962356560944345
2005.5737340678913	0.0017782794100389225
2001.2254959455151	0.0021134890398366475
1996.843756787137	0.002511886431509582
1993.1129851787464	0.0029853826189179603
1990.0877701762508	0.0035481338923357567
1987.487569057619	0.004216965034285822
1984.5232434957445	0.0050118723362727255
1981.5120286632823	0.005956621435290103
1978.7247376104347	0.00707945784384138
1976.2359781068	0.008413951416451957
1973.9      	0.01        
1971.2071110366142	0.01188502227437019
1968.757475052718	0.014125375446227554
1966.7273472730392	0.016788040181225587
1965.1962083034814	0.01995262314968883
1964.0034660496988	0.023713737056616554
1963.9      	0.02818382931264455
1965.3536283034537	0.033496543915782793
1968.5336138541097	0.03981071705534969
1973.4685913987046	0.04731512589614813
1980.1304153261683	0.056234132519034905
1990.0347330323925	0.06683439175686148
2003.4564571925532	0.07943282347242821
2020.2259373560607	0.09440608762859228
2039.6325966565566	0.11220184543019629
2061.8635665923493	0.1333521432163324
2087.6905699364725	0.1584893192461114
2117.1039111000923	0.18836490894898023
2149.6865953845722	0.22387211385683378
2183.9893715904514	0.26607250597988086
2219.9403264777475	0.3162277660168379
2256.3248695050324	0.3758374042884443
2292.1081568294567	0.4466835921509634
2326.2362291566383	0.5308844442309879
2356.573289468405	0.630957344480193
2381.705926636994	0.7498942093324559
2402.9551159349066	0.8912509381337458
2420.1631125835856	1.0592537251772898
2433.373281969475	1.2589254117941662
2441.4387281809873	1.4962356560944328
2446.8886222637725	1.7782794100389228
2450.6503417324066	2.1134890398366473
2453.220574224529	2.511886431509582
2455.0664068195106	2.9853826189179573
2456.2324262104953	3.548133892335753
2457.0814754166927	4.216965034285823
2457.6300078510626	5.011872336272725
2457.9249289252352	5.956621435290109
2458.083409716844	7.079457843841373
2458.1      	8.413951416451948
2458.1      	10.0        
