# T(K)	P(bar)
3011.7      	1e-08       
2923.527121370275	1.1885022274370215e-08
2887.4091028110365	1.4125375446227554e-08
2874.7923288203183	1.6788040181225588e-08
2864.0696664278507	1.9952623149688826e-08
2854.52772839759	2.3713737056616554e-08
2846.536091696784	2.818382931264461e-08
2839.575203580676	3.3496543915782795e-08
2833.655632664256	3.981071705534969e-08
2828.7145767230995	4.731512589614813e-08
2824.8742311649144	5.6234132519034905e-08
2821.649712983243	6.683439175686162e-08
2818.762402277266	7.94328234724282e-08
2816.146757830493	9.440608762859226e-08
2813.7448859496158	1.1220184543019653e-07
2811.80804549301	1.333521432163324e-07
2809.978726267858	1.584893192461114e-07
2808.2027641583077	1.883649089489802e-07
2806.4156318855125	2.2387211385683422e-07
2804.5010583298354	2.6607250597988136e-07
2802.503315195681	3.162277660168379e-07
2800.218342032998	3.7583740428844433e-07
2797.7364328274475	4.466835921509635e-07
2795.162608929431	5.308844442309889e-07
2792.5622894741364	6.309573444801942e-07
2790.2753273889753	7.498942093324558e-07
2788.180765132888	8.912509381337459e-07
2786.292110927052	1.0592537251772896e-06
2784.6226366011433	1.2589254117941687e-06
2783.304246355031	1.4962356560944327e-06
2782.16265480512	1.7782794100389227e-06
2781.137025691746	2.1134890398366474e-06
2780.2354274773584	2.511886431509582e-06
2779.5131451575826	2.9853826189179636e-06
2779.1225245965015	3.5481338923357534e-06
2779.0534972685214	4.216965034285822e-06
2779.425019627656	5.011872336272725e-06
2780.3243603271153	5.95662143529011e-06
2781.750687451598	7.079457843841388e-06
2783.5547781300197	8.413951416451948e-06
2785.5278434940856	1e-05       
2787.537382219227	1.188502227437019e-05
2789.417342597826	1.4125375446227555e-05
2790.744770764834	1.678804018122562e-05
2791.3753712004277	1.9952623149688786e-05
2791.230177060311	2.371373705661655e-05
2790.102419329274	2.818382931264455e-05
2787.7340675697096	3.349654391578279e-05
2783.421949328054	3.981071705534977e-05
2777.1522931241084	4.731512589614803e-05
2768.580901633759	5.623413251903491e-05
2757.3621887944287	6.683439175686148e-05
2743.186962211806	7.943282347242821e-05
2725.8058706604993	9.440608762859246e-05
2704.508375131558	0.00011220184543019629
2678.8964281371145	0.0001333521432163324
2648.969860702191	0.00015848931924611142
2616.9715317309606	0.00018836490894898024
2583.5350071002545	0.00022387211385683424
2549.7635804280862	0.0002660725059798809
2517.033929762446	0.0003162277660168379
2486.743526594772	0.00037583740428844437
2459.7692668834407	0.0004466835921509635
2432.649322463431	0.0005308844442309889
2405.754837182848	0.000630957344480193
2379.5796605652163	0.0007498942093324559
2354.6720443288414	0.0008912509381337458
2331.54516944805	0.0010592537251772895
2308.568532757702	0.0012589254117941673
2285.8824270440155	0.0014962356560944345
2263.6939235258783	0.0017782794100389225
2242.822380538473	0.0021134890398366475
2223.318999185462	0.002511886431509582
2204.6143071002843	0.0029853826189179603
2187.1235636015667	0.0035481338923357567
2171.227289895414	0.004216965034285822
2157.653799164725	0.0050118723362727255
2145.4930347902286	0.005956621435290103
2134.219986794021	0.00707945784384138
2123.7855653348	0.008413951416451957
2114.2      	0.01        
2106.275212479178	0.01188502227437019
2098.4796676739697	0.014125375446227554
2090.4349405471075	0.016788040181225587
2081.7968386540533	0.01995262314968883
2072.413932924297	0.023713737056616554
2061.626715891601	0.02818382931264455
2049.2112272238787	0.033496543915782793
2035.349963103993	0.03981071705534969
2020.334709548915	0.04731512589614813
2004.7382041187352	0.056234132519034905
1988.674750337445	0.06683439175686148
1972.5166959495584	0.07943282347242821
1956.684574332102	0.09440608762859228
1941.5134131543266	0.11220184543019629
1927.9278204157865	0.1333521432163324
1915.4724848120554	0.1584893192461114
1904.515202870692	0.18836490894898023
1895.3426042325673	0.22387211385683378
1888.0831795006254	0.26607250597988086
1883.2500856514046	0.3162277660168379
1879.8142571340297	0.3758374042884443
1877.527881991297	0.4466835921509634
1876.0977602816458	0.5308844442309879
1875.3097846891324	0.630957344480193
1874.9345279157208	0.7498942093324559
1874.6656918159465	0.8912509381337458
1874.4516296121	1.0592537251772898
1874.3      	1.2589254117941662
1874.3      	1.4962356560944328
1874.3      	1.7782794100389228
1874.3      	2.1134890398366473
1874.3      	2.511886431509582
1874.3      	2.9853826189179573
1874.3754950806997	3.548133892335753
1874.4      	4.216965034285823
1874.4325019627656	5.011872336272725
1874.524928925235	5.956621435290109
1874.6834097168444	7.079457843841373
1874.7689490887508	8.413951416451948
1874.9      	10.0        
