# T(K)	P(bar)
3087.9      	1e-08       
3058.2012817180857	1.1885022274370215e-08
3037.145315390114	1.4125375446227554e-08
3016.774780641151	1.6788040181225588e-08
2991.7535493193745	1.9952623149688826e-08
2964.5590259331316	2.3713737056616554e-08
2937.9691336802985	2.818382931264461e-08
2913.1152626886833	3.3496543915782795e-08
2891.3147399172385	3.981071705534969e-08
2873.672938138848	4.731512589614813e-08
2861.4465318719735	5.6234132519034905e-08
2852.222953528499	6.683439175686162e-08
2844.2254651195	7.94328234724282e-08
2836.7967240135104	9.440608762859226e-08
2829.3883620465244	1.1220184543019653e-07
2821.950894693158	1.333521432163324e-07
2814.312778283387	1.584893192461114e-07
2806.512438712384	1.883649089489802e-07
2798.662527542049	2.2387211385683422e-07
2791.004233319341	2.6607250597988136e-07
2784.034552600433	3.162277660168379e-07
2777.3652383464137	3.7583740428844433e-07
2770.9211935427616	4.466835921509635e-07
2764.6127541686724	5.308844442309889e-07
2758.545342106319	6.309573444801942e-07
2752.523294356554	7.498942093324558e-07
2746.3184484252415	8.912509381337459e-07
2739.8200733203075	1.0592537251772896e-06
2732.8904290648775	1.2589254117941687e-06
2725.9107159972227	1.4962356560944327e-06
2718.618014749027	1.7782794100389227e-06
2710.7103936104263	2.1134890398366474e-06
2701.987413862261	2.511886431509582e-06
2692.276729340835	2.9853826189179636e-06
2681.6816788634424	3.5481338923357534e-06
2669.847431573615	4.216965034285822e-06
2656.71465062772	5.011872336272725e-06
2642.2694297895855	5.95662143529011e-06
2626.817552607687	7.079457843841388e-06
2610.6517422735774	8.413951416451948e-06
2593.8050045495906	1e-05       
2576.5104448420257	1.188502227437019e-05
2558.940033699489	1.4125375446227555e-05
2541.2930474792674	1.678804018122562e-05
2522.947713849632	1.9952623149688786e-05
2504.6722436322884	2.371373705661655e-05
2485.8599552733917	2.818382931264455e-05
2464.5091148775623	3.349654391578279e-05
2438.9444138734616	3.981071705534977e-05
2410.6678880171194	4.731512589614803e-05
2378.4880669208924	5.623413251903491e-05
2340.838257312466	6.683439175686148e-05
2295.366041701918	7.943282347242821e-05
2243.8051029104695	9.440608762859246e-05
2190.0364051895663	0.00011220184543019629
2140.648927980996	0.0001333521432163324
2102.2242216478066	0.00015848931924611142
2078.638229777121	0.00018836490894898024
2063.5800257693677	0.00022387211385683424
2053.409804132019	0.0002660725059798809
2047.1600294186778	0.0003162277660168379
2043.9700912050373	0.00037583740428844437
2043.272481040089	0.0004466835921509635
2043.685979299042	0.0005308844442309889
2044.6232200583786	0.000630957344480193
2045.739500810569	0.0007498942093324559
2046.860743985197	0.0008912509381337458
2048.309472601624	0.0010592537251772895
2049.6867635038325	0.0012589254117941673
2050.8437035932466	0.0014962356560944345
2051.6683199198665	0.0017782794100389225
2052.14267316958	0.0021134890398366475
2052.5382669484966	0.002511886431509582
2052.7      	0.0029853826189179603
2052.7253821819922	0.0035481338923357567
2052.8335417277444	0.004216965034285822
2053.301593132251	0.0050118723362727255
2054.318450514122	0.005956621435290103
2056.01585459087	0.00707945784384138
2058.5557573551996	0.008413951416451957
2062.1      	0.01        
2066.639441395422	0.01188502227437019
2072.599069852389	0.014125375446227554
2080.0995899982845	0.016788040181225587
2089.2069530424656	0.01995262314968883
2099.782601026004	0.023713737056616554
2112.07797201099	0.02818382931264455
2126.3485839724476	0.033496543915782793
2142.463753119492	0.03981071705534969
2160.164190135212	0.04731512589614813
2178.7389227329636	0.056234132519034905
2198.513108433501	0.06683439175686148
2219.0625234941704	0.07943282347242821
2239.830783701831	0.09440608762859228
2260.231556912801	0.11220184543019629
2278.9117469282937	0.1333521432163324
2296.0521637652223	0.1584893192461114
2311.115506805497	0.18836490894898023
2323.5737945581277	0.22387211385683378
2332.907340642053	0.26607250597988086
2338.798256750755	0.3162277660168379
2342.7898277649383	0.3758374042884443
2345.2420065345605	0.4466835921509634
2346.5715678028478	0.5308844442309879
2347.123150717607	0.630957344480193
2347.3991040632095	0.7498942093324559
2347.5      	0.8912509381337458
2347.5      	1.0592537251772898
2347.495449211832	1.2589254117941662
2347.4178968444135	1.4962356560944328
2347.3401896289374	1.7782794100389228
2347.2614188076454	2.1134890398366473
2347.181714164151	2.511886431509582
2347.1014605730647	2.9853826189179573
2346.9490098386004	3.548133892335753
2346.793005462957	4.216965034285823
2346.602494111703	5.011872336272725
2346.3376776869127	5.956621435290109
2345.9414757078894	7.079457843841373
2345.486305467495	8.413951416451948
2345.1      	10.0        
