# T(K)	P(bar)
3090.4      	1e-08       
3061.855376988108	1.1885022274370215e-08
3042.295082853211	1.4125375446227554e-08
3023.7155965498523	1.6788040181225588e-08
3000.7339604862095	1.9952623149688826e-08
2975.7658893070275	2.3713737056616554e-08
2951.195227953667	2.818382931264461e-08
2928.1328025011007	3.3496543915782795e-08
2907.774688732551	3.981071705534969e-08
2891.1279986069767	4.731512589614813e-08
2879.4502131341283	5.6234132519034905e-08
2870.6417394055943	6.683439175686162e-08
2863.1214411212395	7.94328234724282e-08
2856.249147186395	9.440608762859226e-08
2849.4082031046623	1.1220184543019653e-07
2842.667998315674	1.333521432163324e-07
2835.787245123449	1.584893192461114e-07
2828.8110566332302	1.883649089489802e-07
2821.854711599293	2.2387211385683422e-07
2815.1537041544234	2.6607250597988136e-07
2809.2558444181436	3.162277660168379e-07
2803.6795354928017	3.7583740428844433e-07
2798.43308860318	4.466835921509635e-07
2793.5172336053806	5.308844442309889e-07
2789.0257727280546	6.309573444801942e-07
2784.7497588411597	7.498942093324558e-07
2780.482452687038	8.912509381337459e-07
2776.193999526705	1.0592537251772896e-06
2771.8497066507584	1.2589254117941687e-06
2767.584326442747	1.4962356560944327e-06
2763.250619220479	1.7782794100389227e-06
2758.685128458732	2.1134890398366474e-06
2753.7748489981113	2.511886431509582e-06
2748.3978583953385	2.9853826189179636e-06
2742.637868947523	3.5481338923357534e-06
2736.3062294442007	4.216965034285822e-06
2729.5073253138603	5.011872336272725e-06
2722.3408049765717	5.95662143529011e-06
2714.971448166743	7.079457843841388e-06
2707.649836568672	8.413951416451948e-06
2699.9303002729753	1e-05       
2691.705222421013	1.188502227437019e-05
2682.8509917921997	1.4125375446227555e-05
2673.246658583849	1.678804018122562e-05
2662.57877678995	1.9952623149688786e-05
2650.4788213346246	2.371373705661655e-05
2636.4757228448684	2.818382931264455e-05
2619.8856435912926	3.349654391578279e-05
2599.3260798319707	3.981071705534977e-05
2573.533515024252	4.731512589614803e-05
2541.698162548715	5.623413251903491e-05
2502.8418740309407	6.683439175686148e-05
2455.7769363324583	7.943282347242821e-05
2402.1721706302665	9.440608762859246e-05
2343.5027187785204	0.00011220184543019629
2282.803570548205	0.0001333521432163324
2224.2287166461792	0.00015848931924611142
2177.764312660928	0.00018836490894898024
2144.181898764685	0.00022387211385683424
2118.9607431680515	0.0002660725059798809
2100.7630437864514	0.0003162277660168379
2087.8444176598864	0.00037583740428844437
2079.5506079210577	0.0004466835921509635
2073.1051552571844	0.0005308844442309889
2068.0566112117363	0.000630957344480193
2064.1841407728225	0.0007498942093324559
2061.300944038065	0.0008912509381337458
2059.2712480188306	0.0010592537251772895
2057.4524237009227	0.0012589254117941673
2055.6813470323023	0.0014962356560944345
2053.826720320534	0.0017782794100389225
2051.929307321679	0.0021134890398366475
2050.143972036915	0.002511886431509582
2048.3874554617664	0.0029853826189179603
2046.8446494521097	0.0035481338923357567
2045.760867984298	0.004216965034285822
2045.2148080123739	0.0050118723362727255
2045.3449201370993	0.005956621435290103
2046.2173350941305	0.00707945784384138
2047.9418180163998	0.008413951416451957
2050.6      	0.01        
2054.37004454874	0.01188502227437019
2059.4968107050527	0.014125375446227554
2066.028733089412	0.016788040181225587
2073.9759891197446	0.01995262314968883
2083.1998625489964	0.023713737056616554
2094.254221688917	0.02818382931264455
2107.273315543939	0.033496543915782793
2122.176115933771	0.03981071705534969
2138.801263885922	0.04731512589614813
2156.749001290501	0.056234132519034905
2176.4768656089204	0.06683439175686148
2197.781322355537	0.07943282347242821
2220.162251132355	0.09440608762859228
2242.915024527208	0.11220184543019629
2264.5284675203397	0.1333521432163324
2284.974310961778	0.1584893192461114
2303.401264510469	0.18836490894898023
2319.0343313917556	0.22387211385683378
2331.1599639110436	0.26607250597988086
2339.0949415550745	0.3162277660168379
2344.6061673608106	0.3758374042884443
2348.082898327699	0.4466835921509634
2350.022687662025	0.5308844442309879
2350.968258373041	0.630957344480193
2351.365472084279	0.7498942093324559
2351.5447693946844	0.8912509381337458
2351.6      	1.0592537251772898
2351.6      	1.2589254117941662
2351.6      	1.4962356560944328
2351.5401896289372	1.7782794100389228
2351.4614188076457	2.1134890398366473
2351.363428328302	2.511886431509582
2351.2029211461295	2.9853826189179573
2351.0490098386003	3.548133892335753
2350.8930054629573	4.216965034285823
2350.6699921489376	5.011872336272725
2350.3376776869127	5.956621435290109
2349.9414757078894	7.079457843841373
2349.486305467495	8.413951416451948
2349.0      	10.0        
