# T(K)	P(bar)
3015.6      	1e-08       
2924.1187149295433	1.1885022274370215e-08
2880.439003021909	1.4125375446227554e-08
2862.224165638578	1.6788040181225588e-08
2851.04739140994	1.9952623149688826e-08
2840.7898080274094	2.3713737056616554e-08
2831.542106979581	2.818382931264461e-08
2822.7669381075675	3.3496543915782795e-08
2814.6249815519964	3.981071705534969e-08
2807.270737507102	4.731512589614813e-08
2801.000785575371	5.6234132519034905e-08
2795.564512071513	6.683439175686162e-08
2790.436215984346	7.94328234724282e-08
2785.5152903999688	9.440608762859226e-08
2780.774339965124	1.1220184543019653e-07
2776.3583437240623	1.333521432163324e-07
2771.982985695653	1.584893192461114e-07
2767.5706724029646	1.883649089489802e-07
2763.1031410661953	2.2387211385683422e-07
2758.6358027696156	2.6607250597988136e-07
2754.168933898057	3.162277660168379e-07
2749.3346416165114	3.7583740428844433e-07
2744.062085335899	4.466835921509635e-07
2738.302530196837	5.308844442309889e-07
2732.1563205752323	6.309573444801942e-07
2725.7250862301353	7.498942093324558e-07
2718.915523873081	8.912509381337459e-07
2711.726591768708	1.0592537251772896e-06
2704.140370395029	1.2589254117941687e-06
2696.307581285772	1.4962356560944327e-06
2688.0404799252096	1.7782794100389227e-06
2679.108838109818	2.1134890398366474e-06
2669.4228413396195	2.511886431509582e-06
2658.989874498418	2.9853826189179636e-06
2647.928708379244	3.5481338923357534e-06
2635.7869397680506	4.216965034285822e-06
2622.3846427766575	5.011872336272725e-06
2607.482462850323	5.95662143529011e-06
2590.8419797313554	7.079457843841388e-06
2572.2074732560495	8.413951416451948e-06
2550.6686988171064	1e-05       
2525.6189394890052	1.188502227437019e-05
2496.217944847188	1.4125375446227555e-05
2460.2212163183285	1.678804018122562e-05
2416.763869825041	1.9952623149688786e-05
2364.4101531945275	2.371373705661655e-05
2303.7616789194244	2.818382931264455e-05
2237.645233135874	3.349654391578279e-05
2181.741700217269	3.981071705534977e-05
2136.398957592013	4.731512589614803e-05
2101.157370203897	5.623413251903491e-05
2075.4435180517603	6.683439175686148e-05
2058.4810278152518	7.943282347242821e-05
2048.3512394435043	9.440608762859246e-05
2040.865527391896	0.00011220184543019629
2035.656071378097	0.0001333521432163324
2032.3859377318245	0.00015848931924611142
2030.4990583821698	0.00018836490894898024
2029.0940255062026	0.00022387211385683424
2028.0213600580023	0.0002660725059798809
2027.3082955530417	0.0003162277660168379
2027.0033231994403	0.00037583740428844437
2027.08083543999	0.0004466835921509635
2027.5687834392336	0.0005308844442309889
2028.3484743357533	0.000630957344480193
2029.4250368143437	0.0007498942093324559
2030.94672397991	0.0008912509381337458
2032.928751981169	0.0010592537251772895
2035.2692018895668	0.0012589254117941673
2037.9248481233528	0.0014962356560944345
2040.8326928258207	0.0017782794100389225
2043.8369300740078	0.0021134890398366475
2046.906135587974	0.002511886431509582
2050.0409900695154	0.0029853826189179603
2053.1899050976945	0.0035481338923357567
2056.318021230338	0.004216965034285822
2059.360355359631	0.0050118723362727255
2062.571661439542	0.005956621435290103
2066.2723013830437	0.00707945784384138
2070.6447379712	0.008413951416451957
2075.8      	0.01        
2081.4935366654445	0.01188502227437019
2088.62033232603	0.014125375446227554
2097.337712179853	0.016788040181225587
2107.6835725127817	0.01995262314968883
2119.2929304495988	0.023713737056616554
2132.520784752545	0.02818382931264455
2147.681581017047	0.033496543915782793
2164.6406368235785	0.03981071705534969
2183.1743110714688	0.04731512589614813
2202.846285257274	0.056234132519034905
2223.896980415623	0.06683439175686148
2245.5699109257234	0.07943282347242821
2267.117882657765	0.09440608762859228
2287.8139847834523	0.11220184543019629
2305.876647856284	0.1333521432163324
2321.7057332213335	0.1584893192461114
2335.1182709638047	0.18836490894898023
2345.9495798246767	0.22387211385683378
2354.1662913344567	0.26607250597988086
2359.6335096730013	0.3162277660168379
2363.591870214422	0.3758374042884443
2366.2624524311295	0.4466835921509634
2367.9124636901897	0.5308844442309879
2368.7792368419546	0.630957344480193
2369.2318401053494	0.7498942093324559
2369.4447693946845	0.8912509381337458
2369.5      	1.0592537251772898
2369.495449211832	1.2589254117941662
2369.4178968444135	1.4962356560944328
2369.3401896289374	1.7782794100389228
2369.2614188076454	2.1134890398366473
2369.1634283283015	2.511886431509582
2369.0029211461297	2.9853826189179573
2368.7735147579006	3.548133892335753
2368.4860109259143	4.216965034285823
2368.1374901861723	5.011872336272725
2367.7127487616776	5.956621435290109
2367.158065991045	7.079457843841373
2366.4105091124916	8.413951416451948
2365.6      	10.0        
