# T(K)	P(bar)
3090.5      	1e-08       
3058.800849916713	1.1885022274370215e-08
3039.4448503163085	1.4125375446227554e-08
3022.387351367769	1.6788040181225588e-08
3000.561132712412	1.9952623149688826e-08
2975.7520938337343	2.3713737056616554e-08
2949.2286648900395	2.818382931264461e-08
2922.1348202335034	3.3496543915782795e-08
2895.8827353957736	3.981071705534969e-08
2872.0751387705945	4.731512589614813e-08
2853.8922781685756	5.6234132519034905e-08
2840.2438232312966	6.683439175686162e-08
2829.3106902563936	7.94328234724282e-08
2820.3007513626576	9.440608762859226e-08
2812.179543798463	1.1220184543019653e-07
2804.4321819720394	1.333521432163324e-07
2796.36809817935	1.584893192461114e-07
2787.8775827987342	1.883649089489802e-07
2778.9742514561835	2.2387211385683422e-07
2769.8800270667175	2.6607250597988136e-07
2761.2296654583165	3.162277660168379e-07
2752.6386865031213	3.7583740428844433e-07
2744.1081837409206	4.466835921509635e-07
2735.636706929116	5.308844442309889e-07
2727.4417607669766	6.309573444801942e-07
2719.331357787669	7.498942093324558e-07
2710.9201359793915	8.912509381337459e-07
2701.901035950211	1.0592537251772896e-06
2691.885643597316	1.2589254117941687e-06
2681.416073995834	1.4962356560944327e-06
2670.2676858248205	1.7782794100389227e-06
2658.2270092232848	2.1134890398366474e-06
2645.1634070547125	2.511886431509582e-06
2630.958521432461	2.9853826189179636e-06
2615.7519740214607	3.5481338923357534e-06
2598.7026227771153	4.216965034285822e-06
2579.356972016049	5.011872336272725e-06
2557.3235521259544	5.95662143529011e-06
2532.6797890307216	7.079457843841388e-06
2505.2093789609544	8.413951416451948e-06
2472.5599636032757	1e-05       
2433.382499515966	1.188502227437019e-05
2386.371610891306	1.4125375446227555e-05
2330.6196278769767	1.678804018122562e-05
2266.910098872962	1.9952623149688786e-05
2198.053340280125	2.371373705661655e-05
2130.272607832353	2.818382931264455e-05
2073.7760726521547	3.349654391578279e-05
2039.5101330532848	3.981071705534977e-05
2012.9743104136955	4.731512589614803e-05
1992.3464549090202	5.623413251903491e-05
1976.603146998241	6.683439175686148e-05
1966.4097256354564	7.943282347242821e-05
1961.118234595074	9.440608762859246e-05
1957.706289576464	0.00011220184543019629
1955.8974999917832	0.0001333521432163324
1955.462434828218	0.00015848931924611142
1956.0127746385338	0.00018836490894898024
1957.2059744937974	0.00022387211385683424
1958.8007926059952	0.0002660725059798809
1960.7877833521868	0.0003162277660168379
1963.20966558153	0.00037583740428844437
1965.7675695196738	0.0004466835921509635
1968.5681234064557	0.0005308844442309889
1971.4827958685723	0.000630957344480193
1974.4671808294424	0.0007498942093324559
1977.5906439587627	0.0008912509381337458
1980.7414935087666	0.0010592537251772895
1984.1473151572034	0.0012589254117941673
1987.7685517165994	0.0014962356560944345
1991.5693326655532	0.0017782794100389225
1995.522276413168	0.0021134890398366475
1999.3150160952684	0.002511886431509582
2003.017138579943	0.0029853826189179603
2006.6168160076554	0.0035481338923357567
2010.1180212303384	0.004216965034285822
2013.1603553596306	0.0050118723362727255
2016.371661439542	0.005956621435290103
2020.0324494333697	0.00707945784384138
2024.3641870019997	0.008413951416451957
2029.6      	0.01        
2035.447416034781	0.01188502227437019
2043.0583389786389	0.014125375446227554
2052.70946699777	0.016788040181225587
2064.5911559058186	0.01995262314968883
2078.5859983502014	0.023713737056616554
2095.6729732992826	0.02818382931264455
2116.4032859899353	0.033496543915782793
2140.824799420572	0.03981071705534969
2168.8777755891374	0.04731512589614813
2200.541032844377	0.056234132519034905
2236.0021152714753	0.06683439175686148
2274.09886069542	0.07943282347242821
2313.591396840941	0.09440608762859228
2352.9972183405444	0.11220184543019629
2388.041872336551	0.1333521432163324
2418.9528942251113	0.1584893192461114
2445.0741619995674	0.18836490894898023
2465.8909602540057	0.22387211385683378
2481.2873225975745	0.26607250597988086
2491.3645757749446	0.3162277660168379
2498.8306767546183	0.3758374042884443
2504.085127810544	0.4466835921509634
2507.586271211392	0.5308844442309879
2509.792602870429	0.630957344480193
2511.0291522949774	0.7498942093324559
2511.8581551574757	0.8912509381337458
2512.37255558185	1.0592537251772898
2512.604550788168	1.2589254117941662
2512.6821031555864	1.4962356560944328
2512.759810371063	1.7782794100389228
2512.7614188076454	2.1134890398366473
2512.7      	2.511886431509582
2512.7      	2.9853826189179573
2512.6245049193003	3.548133892335753
2512.6      	4.216965034285823
2512.567498037234	5.011872336272725
2512.475071074765	5.956621435290109
2512.316590283156	7.079457843841373
2512.231050911249	8.413951416451948
2512.1      	10.0        
