# T(K)	P(bar)
3088.8      	1e-08       
3056.485332439368	1.1885022274370215e-08
3036.2878403373957	1.4125375446227554e-08
3018.2164944588962	1.6788040181225588e-08
2995.2029965634883	1.9952623149688826e-08
2968.8831508300195	2.3713737056616554e-08
2940.823976987448	2.818382931264461e-08
2912.21418897465	3.3496543915782795e-08
2884.5950982100526	3.981071705534969e-08
2859.704346740143	4.731512589614813e-08
2840.816116545805	5.6234132519034905e-08
2826.7250373542015	6.683439175686162e-08
2815.356996540617	7.94328234724282e-08
2805.8918776677397	9.440608762859226e-08
2797.3619073023397	1.1220184543019653e-07
2788.9947565298025	1.333521432163324e-07
2780.3085247073004	1.584893192461114e-07
2771.1876788563004	1.883649089489802e-07
2761.646128751354	2.2387211385683422e-07
2751.9137131766624	2.6607250597988136e-07
2742.4272218872584	3.162277660168379e-07
2732.8754105814755	3.7583740428844433e-07
2723.286623102929	4.466835921509635e-07
2713.673123379749	5.308844442309889e-07
2704.217416269588	6.309573444801942e-07
2694.4712613241327	7.498942093324558e-07
2684.1561317175947	8.912509381337459e-07
2672.8787393559132	1.0592537251772896e-06
2660.108162858763	1.2589254117941687e-06
2646.6140509279635	1.4962356560944327e-06
2632.0164087559283	1.7782794100389227e-06
2615.92788125908	2.1134890398366474e-06
2597.955397694333	2.511886431509582e-06
2577.570985558447	2.9853826189179636e-06
2555.3064265970884	3.5481338923357534e-06
2530.064425971237	4.216965034285822e-06
2500.616673675675	5.011872336272725e-06
2465.768337289365	5.95662143529011e-06
2424.880293054188	7.079457843841388e-06
2376.4036341107253	8.413951416451948e-06
2318.011828935396	1e-05       
2249.1860201213253	1.188502227437019e-05
2171.649867372764	1.4125375446227555e-05
2102.0770146195887	1.678804018122562e-05
2051.6633748911377	1.9952623149688786e-05
2014.9536310388987	2.371373705661655e-05
1989.3605670942427	2.818382931264455e-05
1970.919863181527	3.349654391578279e-05
1959.1385401284326	3.981071705534977e-05
1950.8644643880175	4.731512589614803e-05
1945.6002732223512	5.623413251903491e-05
1942.88144668739	6.683439175686148e-05
1942.2443578522161	7.943282347242821e-05
1942.8443107600676	9.440608762859246e-05
1944.0462655639744	0.00011220184543019629
1945.7810714602647	0.0001333521432163324
1947.9943356187414	0.00015848931924611142
1950.5887947245167	0.00018836490894898024
1953.4071209570886	0.00022387211385683424
1956.4840216019918	0.0002660725059798809
1959.7628966930615	0.0003162277660168379
1963.149543974814	0.00037583740428844437
1966.637594799555	0.0004466835921509635
1970.312700635402	0.0005308844442309889
1974.2060159269513	0.000630957344480193
1978.3237888407664	0.0007498942093324559
1982.6485839429022	0.0008912509381337458
1987.1767833418835	0.0010592537251772895
1991.881916101987	0.0012589254117941673
1996.705992653459	0.0014962356560944345
2001.571812545353	0.0017782794100389225
2006.2362861675383	0.0021134890398366475
2010.4532830437652	0.002511886431509582
2014.5472623386327	0.0029853826189179603
2018.5944912816005	0.0035481338923357567
2022.6739241099124	0.004216965034285822
2026.4963439133821	0.0050118723362727255
2030.6064218508398	0.005956621435290103
2035.5294884268483	0.00707945784384138
2041.5309637411997	0.008413951416451957
2048.7      	0.01        
2057.0864256288305	0.01188502227437019
2067.7031230732573	0.014125375446227554
2080.92473145152	0.016788040181225587
2096.9927365787926	0.01995262314968883
2115.679031888053	0.023713737056616554
2138.019146563223	0.02818382931264455
2164.4858110253504	0.033496543915782793
2195.0952457940807	0.03981071705534969
2229.644111832746	0.04731512589614813
2266.950325826543	0.056234132519034905
2306.3987025161646	0.06683439175686148
2346.2834252673456	0.07943282347242821
2384.759110413794	0.09440608762859228
2419.877566723684	0.11220184543019629
2447.2031339364294	0.1333521432163324
2469.174310961778	0.1584893192461114
2486.332934762322	0.18836490894898023
2499.0456718532987	0.22387211385683378
2507.741026751998	0.26607250597988086
2513.1605602574505	0.3162277660168379
2516.989827764938	0.3758374042884443
2519.592563905272	0.4466835921509634
2521.322687662025	0.5308844442309879
2522.268258373041	0.630957344480193
2522.798208126419	0.7498942093324559
2523.089538789369	0.8912509381337458
2523.22418519395	1.0592537251772898
2523.3045507881684	1.2589254117941662
2523.3821031555867	1.4962356560944328
2523.3401896289374	1.7782794100389228
2523.3      	2.1134890398366473
2523.3      	2.511886431509582
2523.3      	2.9853826189179573
2523.2245049193	3.548133892335753
2523.1465027314784	4.216965034285823
2523.067498037234	5.011872336272725
2522.9875355373824	5.956621435290109
2522.908295141578	7.079457843841373
2522.762101822498	8.413951416451948
2522.6      	10.0        
