# T(K)	P(bar)
3015.5      	1e-08       
2923.864835560207	1.1885022274370215e-08
2880.084252190333	1.4125375446227554e-08
2861.824165638578	1.6788040181225588e-08
2850.660977523041	1.9952623149688826e-08
2840.482910290763	2.3713737056616554e-08
2831.1718725844516	2.818382931264461e-08
2822.3669381075674	3.3496543915782795e-08
2814.197293181588	3.981071705534969e-08
2806.7786032882627	4.731512589614813e-08
2800.587025755679	5.6234132519034905e-08
2795.1007548960943	6.683439175686162e-08
2789.936215984346	7.94328234724282e-08
2784.993515660985	9.440608762859226e-08
2780.174339965124	1.1220184543019653e-07
2775.7583437240623	1.333521432163324e-07
2771.325539011647	1.584893192461114e-07
2766.870672402965	1.883649089489802e-07
2762.4031410661955	2.2387211385683422e-07
2757.9358027696153	2.6607250597988136e-07
2753.323035066955	3.162277660168379e-07
2748.4346416165117	3.7583740428844433e-07
2743.131973861757	4.466835921509635e-07
2737.302530196837	5.308844442309889e-07
2731.1563205752323	6.309573444801942e-07
2724.6587182090652	7.498942093324558e-07
2717.7707544783966	8.912509381337459e-07
2710.5024065747584	1.0592537251772896e-06
2702.835819606861	1.2589254117941687e-06
2694.9254781301856	1.4962356560944327e-06
2686.461048812021	1.7782794100389227e-06
2677.408838109818	2.1134890398366474e-06
2667.667983832072	2.511886431509582e-06
2656.994256217612	2.9853826189179636e-06
2645.7777182178447	3.5481338923357534e-06
2633.4799452310076	4.216965034285822e-06
2619.887136888361	5.011872336272725e-06
2604.7326049998533	5.95662143529011e-06
2587.7751602976673	7.079457843841388e-06
2568.6937787235447	8.413951416451948e-06
2546.732575068244	1e-05       
2521.100248379392	1.188502227437019e-05
2490.7282122723796	1.4125375446227555e-05
2453.716391615808	1.678804018122562e-05
2409.18800369071	1.9952623149688786e-05
2355.981421692582	2.371373705661655e-05
2295.1707723698	2.818382931264455e-05
2230.2793767158464	3.349654391578279e-05
2176.608905029527	3.981071705534977e-05
2132.964584599146	4.731512589614803e-05
2098.8373155594263	5.623413251903491e-05
2073.6879755439895	6.683439175686148e-05
2056.9643936206708	7.943282347242821e-05
2046.994419612408	9.440608762859246e-05
2039.5655273918958	0.00011220184543019629
2034.3271428054945	0.0001333521432163324
2030.9859377318246	0.00015848931924611142
2029.0990583821697	0.00018836490894898024
2027.628968183038	0.00022387211385683424
2026.4778473360025	0.0002660725059798809
2025.685369441302	0.0003162277660168379
2025.3      	0.00037583740428844437
2025.3      	0.0004466835921509635
2025.6515875794253	0.0005308844442309889
2026.3111014744404	0.000630957344480193
2027.273715212079	0.0007498942093324559
2028.555135983082	0.0008912509381337458
2030.3062036756496	0.0010592537251772895
2032.464876771469	0.0012589254117941673
2034.8998649985358	0.0014962356560944345
2037.4871462125761	0.0017782794100389225
2040.1751479609543	0.0021134890398366475
2043.003175418876	0.002511886431509582
2045.7648415590884	0.0029853826189179603
2048.462994187734	0.0035481338923357567
2051.190069790551	0.004216965034285822
2053.842361082755	0.0050118723362727255
2056.665511268168	0.005956621435290103
2059.9730416346742	0.00707945784384138
2063.9669418480003	0.008413951416451957
2068.8      	0.01        
2074.3396572961083	0.01188502227437019
2081.4203323260303	0.014125375446227554
2090.2049774525494	0.016788040181225587
2100.77867530449	0.01995262314968883
2112.9446462930728	0.023713737056616554
2127.0635974940997	0.02818382931264455
2143.4537579991193	0.033496543915782793
2162.005157713386	0.03981071705534969
2182.5181502874675	0.04731512589614813
2204.6197308468177	0.056234132519034905
2228.392238730704	0.06683439175686148
2253.1034846501966	0.07943282347242821
2277.8888722171087	0.09440608762859228
2301.793059365522	0.11220184543019629
2322.6345936803273	0.1333521432163324
2340.8680575099725	0.1584893192461114
2356.2067928270844	0.18836490894898023
2368.4257485438166	0.22387211385683378
2377.5199729332826	0.26607250597988086
2383.471206166306	0.3162277660168379
2387.744933888648	0.3758374042884443
2390.652786853557	0.4466835921509634
2392.5329116338607	0.5308844442309879
2393.557279904128	0.630957344480193
2394.098208126419	0.7498942093324559
2394.3447693946846	0.8912509381337458
2394.42418519395	1.0592537251772898
2394.495449211832	1.2589254117941662
2394.4178968444135	1.4962356560944328
2394.4      	1.7782794100389228
2394.322837615291	2.1134890398366473
2394.181714164151	2.511886431509582
2394.1014605730647	2.9853826189179573
2393.9490098386004	3.548133892335753
2393.7395081944355	4.216965034285823
2393.4699921489373	5.011872336272725
2393.1376776869124	5.956621435290109
2392.741475707889	7.079457843841373
2392.1484072899934	8.413951416451948
2391.5      	10.0        
