# T(K)	P(bar)
3090.2      	1e-08       
3058.423910232045	1.1885022274370215e-08
3038.9900994847326	1.4125375446227554e-08
3021.820086095073	1.6788040181225588e-08
2999.8203743731083	1.9952623149688826e-08
2974.772787043674	2.3713737056616554e-08
2948.0179617046506	2.818382931264461e-08
2920.689457403158	3.3496543915782795e-08
2894.171981914139	3.981071705534969e-08
2870.0594072082718	4.731512589614813e-08
2851.71979780796	5.6234132519034905e-08
2837.9800660558776	6.683439175686162e-08
2826.9684079704307	7.94328234724282e-08
2817.878976623674	9.440608762859226e-08
2809.679543798463	1.1220184543019653e-07
2801.9321819720394	1.333521432163324e-07
2793.7532048113376	1.584893192461114e-07
2785.1413448059297	1.883649089489802e-07
2776.1742514561834	2.2387211385683422e-07
2767.0800270667173	2.6607250597988136e-07
2758.356716042766	3.162277660168379e-07
2749.6366440536376	3.7583740428844433e-07
2740.978072266778	4.466835921509635e-07
2732.4264829572803	5.308844442309889e-07
2724.1527392358894	6.309573444801942e-07
2715.8986217455295	7.498942093324558e-07
2707.285827795338	8.912509381337459e-07
2698.0526655623107	1.0592537251772896e-06
2687.87654202098	1.2589254117941687e-06
2677.251867684661	1.4962356560944327e-06
2665.888254711632	1.7782794100389227e-06
2653.6498468385757	2.1134890398366474e-06
2640.390263711316	2.511886431509582e-06
2625.86436372472	2.9853826189179636e-06
2610.349993698662	3.5481338923357534e-06
2592.9886337030293	4.216965034285822e-06
2573.261960239455	5.011872336272725e-06
2550.736300887632	5.95662143529011e-06
2525.537855021767	7.079457843841388e-06
2497.113040807194	8.413951416451948e-06
2463.2571428571428	1e-05       
2422.3857717419332	1.188502227437019e-05
2372.9507307071626	1.4125375446227555e-05
2314.700059378466	1.678804018122562e-05
2248.382995403872	1.9952623149688786e-05
2177.472602963004	2.371373705661655e-05
2107.830783551452	2.818382931264455e-05
2048.471363192848	3.349654391578279e-05
2013.8974151481457	3.981071705534977e-05
1988.1716805249653	4.731512589614803e-05
1969.7161680255515	5.623413251903491e-05
1957.2810943972145	6.683439175686148e-05
1950.1934811059032	7.943282347242821e-05
1946.6216263685656	9.440608762859246e-05
1944.4039309852901	0.00011220184543019629
1943.3132142821928	0.0001333521432163324
1943.1802733505658	0.00015848931924611142
1943.8878531066864	0.00018836490894898024
1944.9758598474684	0.00022387211385683424
1946.4137671619958	0.0002660725059798809
1948.2419311287076	0.0003162277660168379
1950.50634238209	0.00037583740428844437
1952.9867340796836	0.0004466835921509635
1955.592329616743	0.0005308844442309889
1958.2333044233214	0.000630957344480193
1960.8816448256678	0.0007498942093324559
1963.6046639640495	0.0008912509381337458
1966.1480313607146	0.0010592537251772895
1968.825689566714	0.0012589254117941673
1971.5936023421486	0.0014962356560944345
1974.4099195191984	0.0017782794100389225
1977.2560390174808	0.0021134890398366475
1979.8325618600786	0.002511886431509582
1982.3267673038747	0.0029853826189179603
1984.786847641757	0.0035481338923357567
1987.2509377748495	0.004216965034285822
1989.357169095129	0.0050118723362727255
1991.4532109254199	0.005956621435290103
1994.0143740876088	0.00707945784384138
1997.2530025091999	0.008413951416451957
2001.2      	0.01        
2005.739441395422	0.01188502227437019
2011.9728240102697	0.014125375446227554
2020.3049774525493	0.016788040181225587
2031.028122548604	0.01995262314968883
2044.0687711899602	0.023713737056616554
2060.511098138246	0.02818382931264455
2081.003285989935	0.033496543915782793
2105.7847482358843	0.03981071705534969
2135.005883242813	0.04731512589614813
2168.941998073305	0.056234132519034905
2208.500031445773	0.06683439175686148
2252.3774195741807	0.07943282347242821
2299.1995191732008	0.09440608762859228
2347.145424667596	0.11220184543019629
2390.912646728688	0.1333521432163324
2429.8277254173613	0.1584893192461114
2462.928249452686	0.18836490894898023
2489.48781918781	0.22387211385683378
2509.3515198279592	0.26607250597988086
2522.363704150322	0.3162277660168379
2532.1062073731687	0.3758374042884443
2539.157245819247	0.4466835921509634
2544.0987349015813	0.5308844442309879
2547.1718397123836	0.630957344480193
2549.126464484606	0.7498942093324559
2550.4820021308983	0.8912509381337458
2551.3451111636996	1.0592537251772898
2551.8136523645044	1.2589254117941662
2552.0463094667593	1.4962356560944328
2552.2196207421257	1.7782794100389228
2552.3      	2.1134890398366473
2552.3      	2.511886431509582
2552.3      	2.9853826189179573
2552.2245049193	3.548133892335753
2552.2      	4.216965034285823
2552.2      	5.011872336272725
2552.1875355373822	5.956621435290109
2552.108295141578	7.079457843841373
2552.1      	8.413951416451948
2552.0      	10.0        
