# T(K)	P(bar)
3138.2      	1e-08       
3137.5075428379864	1.1885022274370215e-08
3136.9714950105435	1.4125375446227554e-08
3136.3973062728674	1.6788040181225588e-08
3135.6505527558866	1.9952623149688826e-08
3134.7758751031124	2.3713737056616554e-08
3133.716718468186	2.818382931264461e-08
3132.5247315714914	3.3496543915782795e-08
3131.146232591827	3.981071705534969e-08
3129.503355470969	4.731512589614813e-08
3127.543995492303	5.6234132519034905e-08
3125.2235275620133	6.683439175686162e-08
3122.5355554193775	7.94328234724282e-08
3119.4419114847224	9.440608762859226e-08
3115.8853627752005	1.1220184543019653e-07
3111.856734625461	1.333521432163324e-07
3107.2957522756224	1.584893192461114e-07
3102.19957849651	1.883649089489802e-07
3096.5668189660187	2.2387211385683422e-07
3090.4242288082214	2.6607250597988136e-07
3083.9722490937374	3.162277660168379e-07
3077.312174672187	3.7583740428844433e-07
3070.691082068619	4.466835921509635e-07
3064.3843219715204	5.308844442309889e-07
3058.8684928239263	6.309573444801942e-07
3054.3170227990204	7.498942093324558e-07
3050.3853772391985	8.912509381337459e-07
3047.0051478238533	1.0592537251772896e-06
3043.9633590152625	1.2589254117941687e-06
3039.9306359095062	1.4962356560944327e-06
3034.274980686033	1.7782794100389227e-06
3026.8946500333627	2.1134890398366474e-06
3017.4754104584867	2.511886431509582e-06
3005.5176253866484	2.9853826189179636e-06
2992.012865796854	3.5481338923357534e-06
2979.1404370365717	4.216965034285822e-06
2969.0998429787505	5.011872336272725e-06
2963.625213224295	5.95662143529011e-06
2963.149770849467	7.079457843841388e-06
2964.547930863767	8.413951416451948e-06
2967.1362147406735	1e-05       
2970.7341099932596	1.188502227437019e-05
2974.9899052416877	1.4125375446227555e-05
2978.2694336542954	1.678804018122562e-05
2981.465036536256	1.9952623149688786e-05
2986.7804122723765	2.371373705661655e-05
2993.8278921719775	2.818382931264455e-05
3000.189479726823	3.349654391578279e-05
3006.0416401976413	3.981071705534977e-05
3013.701162619115	4.731512589614803e-05
3022.179262299652	5.623413251903491e-05
3030.252160649413	6.683439175686148e-05
3035.906324061583	7.943282347242821e-05
3039.6647339692427	9.440608762859246e-05
3043.6893863397167	0.00011220184543019629
3046.4      	0.0001333521432163324
3045.945117680127	0.00015848931924611142
3041.935499062111	0.00018836490894898024
3036.030356823671	0.00022387211385683424
3026.934168032029	0.0002660725059798809
3013.641624858599	0.0003162277660168379
2995.313009766228	0.00037583740428844437
2972.291874322936	0.0004466835921509635
2943.6882094074545	0.0005308844442309889
2909.3367894019943	0.000630957344480193
2868.9436091606294	0.0007498942093324559
2822.331928615388	0.0008912509381337458
2772.184469396748	0.0010592537251772895
2718.055932839038	0.0012589254117941673
2661.3093001893308	0.0014962356560944345
2603.424382922654	0.0017782794100389225
2546.6601107069073	0.0021134890398366475
2489.127611115184	0.002511886431509582
2426.791505561024	0.0029853826189179603
2357.25084382967	0.0035481338923357567
2276.9326256553904	0.004216965034285822
2175.5214880123117	0.0050118723362727255
2031.6174713818277	0.005956621435290103
1898.247122406189	0.00707945784384138
1808.8098636224006	0.008413951416451957
1786.9      	0.01        
1780.59094585721	0.01188502227437019
1781.7112957366835	0.014125375446227554
1788.0004879073288	0.016788040181225587
1797.171091911453	0.01995262314968883
1806.95157839247	0.023713737056616554
1818.054221688917	0.02818382931264455
1830.9279527135936	0.033496543915782793
1845.1777252664158	0.03981071705534969
1860.1709010771503	0.04731512589614813
1874.8269137175707	0.056234132519034905
1890.0239207329469	0.06683439175686148
1905.698739478516	0.07943282347242821
1921.5460741017994	0.09440608762859228
1937.221731104371	0.11220184543019629
1952.0423777282329	0.1333521432163324
1966.8337686397501	0.1584893192461114
1981.45907669756	0.18836490894898023
1995.7386228157252	0.22387211385683378
2009.3799593999236	0.26607250597988086
2022.0637041503217	0.3162277660168379
2034.2552261607848	0.3758374042884443
2045.7951604833474	0.4466835921509634
2056.526876620251	0.5308844442309879
2065.982583730412	0.630957344480193
2074.1359061701914	0.7498942093324559
2081.49493733755	0.8912509381337458
2088.0655191583437	1.0592537251772898
2093.87759807825	1.2589254117941662
2098.6082924907714	1.4962356560944328
2102.6307081820805	1.7782794100389228
2106.1046665018243	2.1134890398366473
2109.0668609113213	2.511886431509582
2111.5547222349924	2.9853826189179573
2113.2608917753932	3.548133892335753
2114.5489617593	4.216965034285823
2115.4925176648903	5.011872336272725
2116.1623223130873	5.956621435290109
2116.5585242921106	7.079457843841373
2116.737898177502	8.413951416451948
2116.9      	10.0        
