# T(K)	P(bar)
3134.8      	1e-08       
3134.107542837987	1.1885022274370215e-08
3133.571495010544	1.4125375446227554e-08
3133.030938909216	1.6788040181225588e-08
3132.3505527558864	1.9952623149688826e-08
3131.4758751031127	2.3713737056616554e-08
3130.557187258445	2.818382931264461e-08
3129.4247315714915	3.3496543915782795e-08
3128.046232591827	3.981071705534969e-08
3126.4112212521304	4.731512589614813e-08
3124.530235672611	5.6234132519034905e-08
3122.351041912851	6.683439175686162e-08
3119.8201199913033	7.94328234724282e-08
3116.863686223706	9.440608762859226e-08
3113.3853627752005	1.1220184543019653e-07
3109.356734625461	1.333521432163324e-07
3104.8531989596286	1.584893192461114e-07
3099.7995784965105	1.883649089489802e-07
3094.1347882898112	2.2387211385683422e-07
3087.8326503357075	2.6607250597988136e-07
3081.1534008470853	3.162277660168379e-07
3074.1060473237358	3.7583740428844433e-07
3066.950190275481	4.466835921509635e-07
3059.982082253166	5.308844442309889e-07
3053.6782775130587	6.309573444801942e-07
3048.4197106093916	7.498942093324558e-07
3043.8272220817225	8.912509381337459e-07
3039.811666272254	1.0592537251772896e-06
3036.1133003454142	1.2589254117941687e-06
3031.227501198056	1.4962356560944327e-06
3024.418014749027	1.7782794100389227e-06
3015.3915390321463	2.1134890398366474e-06
3003.6074053528255	2.511886431509582e-06
2988.2789694553676	2.9853826189179636e-06
2968.9752396636773	3.5481338923357534e-06
2949.425682869644	4.216965034285822e-06
2932.7946977340953	5.011872336272725e-06
2921.7892413317422	5.95662143529011e-06
2917.906461937316	7.079457843841388e-06
2916.8794582012424	8.413951416451948e-06
2917.072247497725	1e-05       
2918.1842670342908	1.188502227437019e-05
2919.9242451035807	1.4125375446227555e-05
2921.329757280412	1.678804018122562e-05
2923.1014848017107	1.9952623149688786e-05
2927.2051321439717	2.371373705661655e-05
2933.3248610218525	2.818382931264455e-05
2939.2777060785565	3.349654391578279e-05
2944.359845434794	3.981071705534977e-05
2951.296391931526	4.731512589614803e-05
2959.3792622996516	5.623413251903491e-05
2967.6003522901756	6.683439175686148e-05
2974.050876746313	7.943282347242821e-05
2979.2965356582818	9.440608762859246e-05
2985.831720918401	0.00011220184543019629
2992.0910714931315	0.0001333521432163324
2996.1694659623054	0.00015848931924611142
2997.6632454474493	0.00018836490894898024
2998.940917170633	0.00022387211385683424
2998.7602837260033	0.0002660725059798809
2995.8283543903976	0.0003162277660168379
2988.7015200839533	0.00037583740428844437
2977.0746840014826	0.0004466835921509635
2961.835836790212	0.0005308844442309889
2941.1780572412267	0.000630957344480193
2914.4768701033113	0.0007498942093324559
2883.0019724155454	0.0008912509381337458
2847.405012644477	0.0010592537251772895
2807.12789299546	0.0012589254117941673
2762.35879393384	0.0014962356560944345
2713.726408414028	0.0017782794100389225
2663.9193171940833	0.0021134890398366475
2614.737137371812	0.002511886431509582
2564.275960873845	0.0029853826189179603
2511.8624409713825	0.0035481338923357567
2456.1836725136604	0.004216965034285822
2394.5569042536354	0.0050118723362727255
2321.900716582059	0.005956621435290103
2233.8068395115156	0.00707945784384138
2127.8123493524035	0.008413951416451957
2003.2      	0.01        
1909.0258259661587	0.01188502227437019
1858.0236540643575	0.014125375446227554
1834.8613899111026	0.016788040181225587
1825.9331749462663	0.01995262314968883
1823.7862388894578	0.023713737056616554
1826.198672619794	0.02818382931264455
1831.515522080015	0.033496543915782793
1839.2118509674021	0.03981071705534969
1848.661880456766	0.04731512589614813
1859.2424243415614	0.056234132519034905
1871.2373908916088	0.06683439175686148
1884.399400043484	0.07943282347242821
1898.5283267119635	0.09440608762859228
1913.4239276205396	0.11220184543019629
1928.321765112234	0.1333521432163324
1943.6496623845	0.1584893192461114
1959.0939326112102	0.18836490894898023
1974.4108835634872	0.22387211385683378
1989.4083764162904	0.26607250597988086
2003.3308947991338	0.3162277660168379
2016.720544531915	0.3758374042884443
2029.4769440696236	0.4466835921509634
2041.480236197782	0.5308844442309879
2052.1179066967134	0.630957344480193
2061.365058465169	0.7498942093324559
2069.7769394684483	0.8912509381337458
2077.3799266796927	1.0592537251772898
2084.214004383594	1.2589254117941662
2089.565117735463	1.4962356560944328
2094.149380779521	1.7782794100389228
2098.136153655951	2.1134890398366473
2101.558290090567	2.511886431509582
2104.4474193696688	2.9853826189179573
2106.6138622595918	3.548133892335753
2108.42344263895	4.216965034285823
2109.8875294414843	5.011872336272725
2111.012180163558	5.956621435290109
2111.725343725799	7.079457843841373
2112.1447454437543	8.413951416451948
2112.5      	10.0        
