# T(K)	P(bar)
3136.3      	1e-08       
3135.607542837987	1.1885022274370215e-08
3135.071495010544	1.4125375446227554e-08
3134.4973062728677	1.6788040181225588e-08
3133.7505527558865	1.9952623149688826e-08
3132.875875103113	2.3713737056616554e-08
3131.957187258445	2.818382931264461e-08
3130.77627729471	3.3496543915782795e-08
3129.373920962236	3.981071705534969e-08
3127.8112212521305	4.731512589614813e-08
3125.930235672611	5.6234132519034905e-08
3123.687284737432	6.683439175686162e-08
3121.0778377053402	7.94328234724282e-08
3118.0636862237056	9.440608762859226e-08
3114.5875673372157	1.1220184543019653e-07
3110.63641280574	1.333521432163324e-07
3106.1531989596283	1.584893192461114e-07
3101.0995784965103	1.883649089489802e-07
3095.4668189660183	2.2387211385683422e-07
3089.3242288082215	2.6607250597988136e-07
3082.799299678187	3.162277660168379e-07
3076.0101322227033	3.7583740428844433e-07
3069.17063617205	4.466835921509635e-07
3062.543426084179	5.308844442309889e-07
3056.7124066995793	6.309573444801942e-07
3051.917918735811	7.498942093324558e-07
3047.7062996604604	8.912509381337459e-07
3044.0809626299033	1.0592537251772896e-06
3040.9588082270943	1.2589254117941687e-06
3036.84853275392	1.4962356560944327e-06
3031.1151703149703	1.7782794100389227e-06
3023.656068841008	2.1134890398366474e-06
3014.175410458487	2.511886431509582e-06
3002.2176253866483	2.9853826189179636e-06
2988.5618756354543	3.5481338923357534e-06
2975.4799452310076	4.216965034285822e-06
2965.2348390532193	5.011872336272725e-06
2959.6376776869124	5.95662143529011e-06
2959.241475707889	7.079457843841388e-06
2960.7858290412687	8.413951416451948e-06
2963.577888989991	1e-05       
2967.440340363131	1.188502227437019e-05
2972.0037102531965	1.4125375446227555e-05
2975.4394066854525	1.678804018122562e-05
2978.7901602697316	1.9952623149688786e-05
2984.262595147863	2.371373705661655e-05
2991.4484984020028	2.818382931264455e-05
2997.88712499717	3.349654391578279e-05
3003.5852812450717	3.981071705534977e-05
3011.4255051469327	4.731512589614803e-05
3020.3242144857404	5.623413251903491e-05
3028.955894797947	6.683439175686148e-05
3035.167510940894	7.943282347242821e-05
3039.4658645604063	9.440608762859246e-05
3044.1874208470717	0.00011220184543019629
3047.6603571534215	0.0001333521432163324
3047.916471769519	0.00015848931924611142
3044.5358129347205	0.00018836490894898024
3039.4459873784813	0.00022387211385683424
3031.2998334180265	0.0002660725059798809
3019.1313687581714	0.0003162277660168379
3002.192766552795	0.00037583740428844437
2981.031924882699	0.0004466835921509635
2954.7633431643894	0.0005308844442309889
2923.0448395479416	0.000630957344480193
2885.750290800641	0.0007498942093324559
2843.383316559348	0.0008912509381337458
2798.1321665811643	0.0010592537251772895
2749.6724498858084	0.0012589254117941673
2699.10896268567	0.0014962356560944345
2647.7036351074057	0.0017782794100389225
2597.738426137556	0.0021134890398366475
2549.4166314379036	0.002511886431509582
2499.882233142962	0.0029853826189179603
2448.3924093372807	0.0035481338923357567
2393.8849228801264	0.004216965034285822
2335.0664630471406	0.0050118723362727255
2268.144039461143	0.005956621435290103
2187.1326266802116	0.00707945784384138
2085.2980797960035	0.008413951416451957
1954.0      	0.01        
1847.5154764192512	0.01188502227437019
1796.1087039589213	0.014125375446227554
1777.2421238194606	0.016788040181225587
1772.0988944882274	0.01995262314968883
1773.848249793775	0.023713737056616554
1779.4782828201064	0.02818382931264455
1787.808330320941	0.033496543915782793
1798.131748598027	0.03981071705534969
1809.5720013930236	0.04731512589614813
1821.2497868658718	0.056234132519034905
1834.6487772245684	0.06683439175686148
1849.218198904851	0.07943282347242821
1864.4807498848486	0.09440608762859228
1879.9305171690455	0.11220184543019629
1895.0599272642378	0.1333521432163324
1910.6216269660836	0.1584893192461114
1926.2664085968188	0.18836490894898023
1941.6628375491764	0.22387211385683378
1956.4210087075198	0.26607250597988086
1970.4767936302353	0.3162277660168379
1984.277693105109	0.3758374042884443
1997.7382817593307	0.4466835921509634
2010.7949396063261	0.5308844442309879
2023.0873588495356	0.630957344480193
2034.2906270129843	0.7498942093324559
2044.7409437302447	0.8912509381337458
2054.2636305586907	1.0592537251772898
2062.7004693587864	1.2589254117941662
2069.5250776916046	1.4962356560944328
2075.346536345464	1.7782794100389228
2080.4377091565593	2.1134890398366473
2084.877720120756	2.511886431509582
2088.729892492892	2.9853826189179573
2091.744308147288	3.548133892335753
2094.358415324164	4.216965034285823
2096.547545143609	5.011872336272725
2098.29943140188	5.956621435290109
2099.5672777347536	7.079457843841373
2100.389490887508	8.413951416451948
2101.2      	10.0        
