# T(K)	P(bar)
3128.4      	1e-08       
3127.7075428379867	1.1885022274370215e-08
3127.1167441789676	1.4125375446227554e-08
3126.4973062728677	1.6788040181225588e-08
3125.7505527558865	1.9952623149688826e-08
3124.875875103113	2.3713737056616554e-08
3123.7464840730568	2.818382931264461e-08
3122.4762772947097	3.3496543915782795e-08
3121.0185442214183	3.981071705534969e-08
3119.295489689808	4.731512589614813e-08
3117.2577553119954	5.6234132519034905e-08
3114.8597703865944	6.683439175686162e-08
3112.050990847452	7.94328234724282e-08
3108.754812528788	9.440608762859226e-08
3104.8765445271392	1.1220184543019653e-07
3100.5380219043423	1.333521432163324e-07
3095.6659655395974	1.584893192461114e-07
3090.1096745540767	1.883649089489802e-07
3083.7746349087743	2.2387211385683422e-07
3076.674757973139	2.6607250597988136e-07
3069.223906691578	3.162277660168379e-07
3061.4978775257996	3.7583740428844433e-07
3053.6791870082006	4.466835921509635e-07
3046.030962393989	5.308844442309889e-07
3039.333169857625	6.309573444801942e-07
3033.687870504043	7.498942093324558e-07
3028.5242975295623	8.912509381337459e-07
3023.8181847206547	1.0592537251772896e-06
3019.440487734726	1.2589254117941687e-06
3013.3138507086733	1.4962356560944327e-06
3004.9619969567066	1.7782794100389227e-06
2994.127009223285	2.1134890398366474e-06
2980.0759719188623	2.511886431509582e-06
2961.5373923779575	2.9853826189179636e-06
2940.5898429689837	3.5481338923357534e-06
2922.3445899993726	4.216965034285822e-06
2909.4398272766257	5.011872336272725e-06
2903.475071074765	5.95662143529011e-06
2903.316590283156	7.079457843841388e-06
2904.4031854200134	8.413951416451948e-06
2906.2222929936306	1e-05       
2908.7623036987106	1.188502227437019e-05
2911.9277826898974	1.4125375446227555e-05
2914.5045550140894	1.678804018122562e-05
2917.377350936042	1.9952623149688786e-05
2922.5393208346336	2.371373705661655e-05
2929.692742012178	2.818382931264455e-05
2936.689479726823	3.349654391578279e-05
2942.5416401976413	3.981071705534977e-05
2950.313333883024	4.731512589614803e-05
2959.264187163505	5.623413251903491e-05
2968.3633630950144	6.683439175686148e-05
2975.6898846995155	7.943282347242821e-05
2981.7840265872533	9.440608762859246e-05
2989.2791657779626	0.00011220184543019629
2996.65392865477	0.0001333521432163324
3002.047851185785	0.00015848931924611142
3005.1140301289743	0.00018836490894898024
3008.007120957089	0.00022387211385683424
3009.474050887999	0.0002660725059798809
3008.232728848668	0.0003162277660168379
3002.921155263805	0.00037583740428844437
2994.0847598411274	0.0004466835921509635
2982.114145705997	0.0005308844442309889
2964.81034455505	0.000630957344480193
2941.1045501221847	0.0007498942093324559
2911.6318723891113	0.0008912509381337458
2877.7370335516202	0.0010592537251772895
2837.349779727824	0.0012589254117941673
2790.490242217241	0.0014962356560944345
2737.6471562292763	0.0017782794100389225
2681.041001763434	0.0021134890398366475
2623.054037387288	0.002511886431509582
2562.1483966235883	0.0029853826189179603
2496.632182753028	0.0035481338923357567
2423.1034602102777	0.004216965034285822
2331.053350657329	0.0050118723362727255
2176.014244047018	0.005956621435290103
1961.0195350061801	0.00707945784384138
1767.5225340943998	0.008413951416451957
1773.0      	0.01        
1775.4620699093814	0.01188502227437019
1783.098604778584	0.014125375446227554
1793.643099634118	0.016788040181225587
1805.1699863996803	0.01995262314968883
1816.6998281862452	0.023713737056616554
1829.0077376158606	0.02818382931264455
1842.5702240975027	0.033496543915782793
1857.1884787480503	0.03981071705534969
1872.5102299829564	0.04731512589614813
1887.5581146191098	0.056234132519034905
1903.652764013393	0.06683439175686148
1920.4752560539202	0.07943282347242821
1937.5726951865531	0.09440608762859228
1954.4524823307315	0.11220184543019629
1970.35380110425	0.1333521432163324
1986.2362700204724	0.1584893192461114
2001.9664085968188	0.18836490894898023
2017.4108835634872	0.22387211385683378
2032.4083764162904	0.26607250597988086
2046.4038442146846	0.3162277660168379
2059.922586981399	0.3758374042884443
2072.7769440696234	0.4466835921509634
2084.7802361977824	0.5308844442309879
2095.4179066967135	0.630957344480193
2104.797794507309	0.7498942093324559
2113.411247652502	0.8912509381337458
2121.2282970675924	1.0592537251772898
2128.236758324434	1.2589254117941662
2133.9756335133948	1.4962356560944328
2139.0082430058983	1.7782794100389228
2143.390478425369	2.1134890398366473
2147.113147598114	2.511886431509582
2150.243037650475	2.9853826189179573
2152.489357340291	3.548133892335753
2154.269945370428	4.216965034285823
2155.590023553187	5.011872336272725
2156.49971570094	5.956621435290109
2157.1336388673767	7.079457843841373
2157.4068472662525	8.413951416451948
2157.7      	10.0        
