# T(K)	P(bar)
3040.3      	1e-08       
3037.2993522979414	1.1885022274370215e-08
3036.454750831576	1.4125375446227554e-08
3036.3654694546076	1.6788040181225588e-08
3036.059241660696	1.9952623149688826e-08
3035.8206932099397	2.3713737056616554e-08
3035.5892968146113	2.818382931264461e-08
3035.306182892873	3.3496543915782795e-08
3034.9892465183652	3.981071705534969e-08
3034.6606710941937	4.731512589614813e-08
3034.2687990984605	5.6234132519034905e-08
3033.8174569474863	6.683439175686162e-08
3033.219459426335	7.94328234724282e-08
3032.5040273491477	9.440608762859226e-08
3031.773545255816	1.1220184543019653e-07
3030.843861836645	1.333521432163324e-07
3029.7382997399072	1.584893192461114e-07
3028.4477161295245	1.883649089489802e-07
3026.94766256172	2.2387211385683422e-07
3025.1926368023487	2.6607250597988136e-07
3023.0574163645792	3.162277660168379e-07
3020.565278358772	3.7583740428844433e-07
3017.6654295601675	4.466835921509635e-07
3014.2990253800644	5.308844442309889e-07
3010.4379449767484	6.309573444801942e-07
3005.8515507147413	7.498942093324558e-07
3000.8452199508242	8.912509381337459e-07
2996.643740539152	1.0592537251772896e-06
2994.6451558625904	1.2589254117941687e-06
2990.302223287161	1.4962356560944327e-06
2984.395549572844	1.7782794100389227e-06
2978.0520858039968	2.1134890398366474e-06
2971.9565631622622	2.511886431509582e-06
2966.4993189684033	2.9853826189179636e-06
2962.549750884316	3.5481338923357534e-06
2960.17655736105	4.216965034285822e-06
2960.0125490691403	5.011872336272725e-06
2961.9866826402026	5.95662143529011e-06
2963.8092117437086	7.079457843841388e-06
2964.8963381537606	8.413951416451948e-06
2967.2834394904457	1e-05       
2971.3855890652117	1.188502227437019e-05
2977.110785425831	1.4125375446227555e-05
2982.8890021528064	1.678804018122562e-05
2989.2551968059875	1.9952623149688786e-05
2998.440441348254	2.371373705661655e-05
3009.964265973479	2.818382931264455e-05
3021.1224459419686	3.349654391578279e-05
3029.1306655336143	3.981071705534977e-05
3038.018104570613	4.731512589614803e-05
3047.1192349774165	5.623413251903491e-05
3055.333607336803	6.683439175686148e-05
3060.350681913799	7.943282347242821e-05
3063.277243040271	9.440608762859246e-05
3066.8399759875106	0.00011220184543019629
3069.2842857095907	0.0001333521432163324
3068.545117680127	0.00015848931924611142
3064.535499062111	0.00018836490894898024
3058.955643439494	0.00022387211385683424
3050.3822698080276	0.0002660725059798809
3037.7479598642544	0.0003162277660168379
3020.1827969544743	0.00037583740428844437
2998.7894185627288	0.0004466835921509635
2972.5805390241976	0.0005308844442309889
2940.571110934814	0.000630957344480193
2902.513433194601	0.0007498942093324559
2859.5057485678067	0.0008912509381337458
2812.7485112110344	0.0010592537251772895
2762.3118982324377	0.0012589254117941673
2709.2841145623174	0.0014962356560944345
2654.925395668341	0.0017782794100389225
2601.639713950495	0.0021134890398366475
2549.669268732335	0.002511886431509582
2495.9127975421643	0.0029853826189179603
2439.1856882319307	0.0035481338923357567
2377.7302340058786	0.004216965034285822
2308.3806175714963	0.0050118723362727255
2223.201770481143	0.005956621435290103
2101.2669215319474	0.00707945784384138
1933.8602334888058	0.008413951416451957
1723.3      	0.01        
1713.6825394164787	0.01188502227437019
1714.6873090419006	0.014125375446227554
1723.2139565429907	0.016788040181225587
1736.0503975665151	0.01995262314968883
1749.806691560141	0.023713737056616554
1764.1338318892294	0.02818382931264455
1779.6331267402654	0.033496543915782793
1795.6822973409107	0.03981071705534969
1811.494498420634	0.04731512589614813
1826.385634258494	0.056234132519034905
1842.0702209608794	0.06683439175686148
1858.4215623381435	0.07943282347242821
1875.0855962306186	0.09440608762859228
1891.6678579439117	0.11220184543019629
1908.1095127922583	0.1333521432163324
1924.7094852924167	0.1584893192461114
1941.083836553644	0.18836490894898023
1956.974944915902	0.22387211385683378
1972.2915333613178	0.26607250597988086
1986.7415407079889	0.3162277660168379
2000.830756779335	0.3758374042884443
2014.5587276558997	0.4466835921509634
2027.9051635781614	0.5308844442309879
2040.2763803806222	0.630957344480193
2051.3578909708444	0.7498942093324559
2061.561866151507	0.8912509381337458
2070.815260170791	1.0592537251772898
2079.1095709351225	1.2589254117941662
2086.0892840027773	1.4962356560944328
2092.1857778297153	1.7782794100389228
2097.669196310686	2.1134890398366473
2102.5874351358502	2.511886431509582
2106.921129054503	2.9853826189179573
2110.3217835507867	3.548133892335753
2113.2189071297284	4.216965034285823
2115.6450510319064	5.011872336272725
2117.6368247897326	5.956621435290109
2119.1423923100206	7.079457843841373
2120.0584399762593	8.413951416451948
2121.0      	10.0        
