# T(K)	P(bar)
3073.0      	1e-08       
3070.153231667278	1.1885022274370215e-08
3069.354750831576	1.4125375446227554e-08
3069.299102090956	1.6788040181225588e-08
3069.059241660696	1.9952623149688826e-08
3068.8206932099397	2.3713737056616554e-08
3068.6595312097406	2.818382931264461e-08
3068.5030914464364	3.3496543915782795e-08
3068.316934888774	3.981071705534969e-08
3068.076402656516	4.731512589614813e-08
3067.8412794590768	5.6234132519034905e-08
3067.4812141229054	6.683439175686162e-08
3067.0885885701864	7.94328234724282e-08
3066.6693515660986	9.440608762859226e-08
3066.182363503877	1.1220184543019653e-07
3065.562574557763	1.333521432163324e-07
3064.825533159938	1.584893192461114e-07
3063.9651440863495	1.883649089489802e-07
3062.959769928445	2.2387211385683422e-07
3061.763161456147	2.6607250597988136e-07
3060.3869105200865	3.162277660168379e-07
3058.777533055676	3.7583740428844433e-07
3056.886990198159	4.466835921509635e-07
3054.662608929431	5.308844442309889e-07
3052.0622894741364	6.309573444801942e-07
3049.111647178277	7.498942093324558e-07
3045.7853772391986	8.912509381337459e-07
3043.2032592242003	1.0592537251772896e-06
3042.7589255667913	1.2589254117941687e-06
3040.354802176821	1.4962356560944327e-06
3036.570239962605	1.7782794100389227e-06
3032.0465472663773	2.1134890398366474e-06
3027.147992341508	2.511886431509582e-06
3022.0920161030795	2.9853826189179636e-06
3017.545790238718	3.5481338923357534e-06
3014.2810928702716	4.216965034285822e-06
3012.9275137393593	5.011872336272725e-06
3013.6368247897326	5.95662143529011e-06
3015.1423923100206	7.079457843841388e-06
3016.6100326862656	8.413951416451948e-06
3018.758416742493	1e-05       
3021.774764438453	1.188502227437019e-05
3025.6451252877237	1.4125375446227555e-05
3029.5493257789235	1.678804018122562e-05
3034.1162738710145	1.9952623149688786e-05
3040.6735095252952	2.371373705661655e-05
3048.7781980824034	2.818382931264455e-05
3056.489479726823	3.349654391578279e-05
3062.3416401976415	3.981071705534977e-05
3068.8794499800283	4.731512589614803e-05
3075.5344467247387	5.623413251903491e-05
3081.4816815475074	6.683439175686148e-05
3085.144942349758	7.943282347242821e-05
3087.189752111299	9.440608762859246e-05
3089.6929242264778	0.00011220184543019629
3091.326428564386	0.0001333521432163324
3090.4897139859972	0.00015848931924611142
3086.873195232492	0.00018836490894898024
3081.8761020248103	0.00022387211385683424
3074.1479351940247	0.0002660725059798809
3062.706482099046	0.0003162277660168379
3046.7525841427205	0.00037583740428844437
3026.9869628025212	0.0004466835921509635
3003.758847939983	0.0005308844442309889
2975.7387368909544	0.000630957344480193
2942.630687652731	0.0007498942093324559
2905.789840486389	0.0008912509381337458
2866.889336367204	0.0010592537251772895
2825.2149176411667	0.0012589254117941673
2782.1272781497073	0.0014962356560944345
2739.2269667712894	0.0017782794100389225
2699.1441171704764	0.0021134890398366475
2662.0969865031075	0.002511886431509582
2625.896812214472	0.0029853826189179603
2590.611043925361	0.0035481338923357567
2556.291211073597	0.004216965034285822
2524.0736727300655	0.0050118723362727255
2493.0529064271745	0.005956621435290103
2462.2772954761936	0.00707945784384138
2431.570470234401	0.008413951416451957
2400.8      	0.01        
2371.0243420334177	0.01188502227437019
2340.9114281800635	0.014125375446227554
2310.283271824264	0.016788040181225587
2278.9112103070975	0.01995262314968883
2246.78668560522	0.023713737056616554
2213.728975699156	0.02818382931264455
2178.417215573253	0.033496543915782793
2140.6835031660885	0.03981071705534969
2100.38394129758	0.04731512589614813
2058.375263354985	0.056234132519034905
2012.9369662749025	0.06683439175686148
1962.8017392610957	0.07943282347242821
1909.9423923115212	0.09440608762859228
1858.6731872055084	0.11220184543019629
1819.0742720073777	0.1333521432163324
1787.4629995196385	0.1584893192461114
1764.5524014391601	0.18836490894898023
1750.5828343041221	0.22387211385683378
1744.5200180444783	0.26607250597988086
1745.2212918177104	0.3162277660168379
1749.4265918556503	0.3758374042884443
1756.5025965780753	0.4466835921509634
1765.821132085124	0.5308844442309879
1776.7739928210606	0.630957344480193
1788.7197793079617	0.7498942093324559
1801.3869501229397	0.8912509381337458
1814.6114829714854	1.0592537251772898
1828.2417784713887	1.2589254117941662
1840.8828143605858	1.4962356560944328
1852.9509867726197	1.7782794100389228
1864.7328540837527	2.1134890398366473
1876.351446198117	2.511886431509582
1887.988216905611	2.9853826189179573
1899.3732719435548	3.548133892335753
1911.078087546735	4.216965034285823
1922.9752944148424	5.011872336272725
1934.9821338552438	5.956621435290109
1946.9474336217395	7.079457843841373
1959.9902941763899	8.413951416451948
1979.7      	10.0        
