# T(K)	P(bar)
3140.1      	1e-08       
3139.4844825226546	1.1885022274370215e-08
3138.9714950105435	1.4125375446227554e-08
3138.4309389092155	1.6788040181225588e-08
3137.7641388689876	1.9952623149688826e-08
3136.968977366466	2.3713737056616554e-08
3136.127421653575	2.818382931264461e-08
3135.0731858482736	3.3496543915782795e-08
3133.773920962236	3.981071705534969e-08
3132.226952814453	4.731512589614813e-08
3130.502716033227	5.6234132519034905e-08
3128.542313439108	6.683439175686162e-08
3126.204684563229	7.94328234724282e-08
3123.429010440657	9.440608762859226e-08
3120.1963855852778	1.1220184543019653e-07
3116.5551255268583	1.333521432163324e-07
3112.4404323796593	1.584893192461114e-07
3107.744530467727	1.883649089489802e-07
3102.478926332744	2.2387211385683422e-07
3096.8947534620193	2.6607250597988136e-07
3090.836996171491	3.162277660168379e-07
3084.4652383464136	3.7583740428844433e-07
3077.991082068619	4.466835921509635e-07
3071.6638740278495	5.308844442309889e-07
3065.9904497617526	6.309573444801942e-07
3061.2179187358106	7.498942093324558e-07
3057.140607844514	8.912509381337459e-07
3053.7777034057026	1.0592537251772896e-06
3050.9997653206065	1.2589254117941687e-06
3047.5874611541976	1.4962356560944327e-06
3042.85251550985	1.7782794100389227e-06
3036.6505303033887	2.1134890398366474e-06
3028.5862696679214	2.511886431509582e-06
3017.9927956445476	2.9853826189179636e-06
3005.49430184595	3.5481338923357534e-06
2992.833442499529	4.216965034285822e-06
2981.7897880213136	5.011872336272725e-06
2974.0886727336224	5.95662143529011e-06
2971.47373967207	7.079457843841388e-06
2971.889490887508	8.413951416451948e-06
2973.947315741583	1e-05       
2977.2278796233886	1.188502227437019e-05
2981.1691977244245	1.4125375446227555e-05
2984.2144741075604	1.678804018122562e-05
2987.114789069304	1.9952623149688786e-05
2991.951680770431	2.371373705661655e-05
2998.5897108620525	2.818382931264455e-05
3005.188302361996	3.349654391578279e-05
3010.9634607213566	3.981071705534977e-05
3018.6011626191153	4.731512589614803e-05
3027.2542281468577	5.623413251903491e-05
3035.7855331260994	6.683439175686148e-05
3042.1564214778396	7.943282347242821e-05
3046.823814982666	9.440608762859246e-05
3051.936438100749	0.00011220184543019629
3055.9496428794455	0.0001333521432163324
3057.0235029036066	0.00015848931924611142
3054.5862837436357	0.00018836490894898024
3050.4917325796205	0.00022387211385683424
3043.626575136023	0.0002660725059798809
3033.058669328181	0.0003162277660168379
3018.005755333766	0.00037583740428844437
2999.480329842363	0.0004466835921509635
2977.144827239025	0.0005308844442309889
2950.174075533271	0.000630957344480193
2918.661010876134	0.0007498942093324559
2884.3029164536106	0.0008912509381337458
2848.3082815704506	0.0010592537251772895
2810.6403460660063	0.0012589254117941673
2772.3894997091875	0.0014962356560944345
2734.812645849753	0.0017782794100389225
2700.1848586206484	0.0021134890398366475
2668.465070392363	0.002511886431509582
2637.672520084387	0.0029853826189179603
2607.8370323008285	0.0035481338923357567
2578.988121518572	0.004216965034285822
2552.3091914617003	0.0050118723362727255
2527.0451589977856	0.005956621435290103
2502.485007299129	0.00707945784384138
2478.4819849448004	0.008413951416451957
2454.8      	0.01        
2432.641370815567	0.01188502227437019
2410.505514663974	0.014125375446227554
2388.3501270952443	0.016788040181225587
2366.1774050102595	0.01995262314968883
2344.389979841164	0.023713737056616554
2323.7474165004055	0.02818382931264455
2303.201888036737	0.033496543915782793
2282.6840888049796	0.03981071705534969
2262.0548968980797	0.04731512589614813
2241.6775531199555	0.056234132519034905
2221.395620040242	0.06683439175686148
2200.7797587917926	0.07943282347242821
2179.7643699523987	0.09440608762859228
2158.198154569804	0.11220184543019629
2137.0478567836676	0.1333521432163324
2115.9231876575	0.1584893192461114
2094.9418838781044	0.18836490894898023
2074.1840581073607	0.22387211385683378
2053.682166281986	0.26607250597988086
2034.0708484501113	0.3162277660168379
2014.7508211629506	0.3758374042884443
1995.8442494731378	0.4466835921509634
1977.501846055384	0.5308844442309879
1960.5603708163453	0.630957344480193
1944.9927638071058	0.7498942093324559
1930.4653559302155	0.8912509381337458
1917.3173320712124	1.0592537251772898
1905.6991786221238	1.2589254117941662
1893.756114039692	1.4962356560944328
1881.3107198878142	1.7782794100389228
1868.5884280309301	2.1134890398366473
1856.2131263245249	2.511886431509582
1845.2986379368062	2.9853826189179573
1836.6445509616344	3.548133892335753
1828.8712567589862	4.216965034285823
1821.8023370904539	5.011872336272725
1815.2277719158344	5.956621435290109
1809.0470210430751	7.079457843841373
1800.6087529711574	8.413951416451948
1784.6      	10.0        
