# T(K)	P(bar)
3036.3      	1e-08       
2959.821953439837	1.1885022274370215e-08
2917.189700632617	1.4125375446227554e-08
2896.09053300223	1.6788040181225588e-08
2885.1462858981668	1.9952623149688826e-08
2876.6380578211847	2.3713737056616554e-08
2868.8063260919134	2.818382931264461e-08
2861.2937522592943	3.3496543915782795e-08
2854.201865256083	3.981071705534969e-08
2847.657261099875	4.731512589614813e-08
2842.2494275587574	5.6234132519034905e-08
2837.72959817654	6.683439175686162e-08
2833.839579417638	7.94328234724282e-08
2830.5378841355746	9.440608762859226e-08
2827.733863139539	1.1220184543019653e-07
2825.409654591612	1.333521432163324e-07
2823.3638328998454	1.584893192461114e-07
2821.5752401439163	1.883649089489802e-07
2820.027739252238	2.2387211385683422e-07
2818.671582983633	2.6607250597988136e-07
2817.505758766739	3.162277660168379e-07
2816.33468162887	3.7583740428844433e-07
2815.0579934654393	4.466835921509635e-07
2813.5955205632918	5.308844442309889e-07
2812.019569378265	6.309573444801942e-07
2810.339903536464	7.498942093324558e-07
2808.570303922257	8.912509381337459e-07
2806.816296121002	1.0592537251772896e-06
2805.2317381774797	1.2589254117941687e-06
2804.068452666204	1.4962356560944327e-06
2803.2018962893712	1.7782794100389227e-06
2802.684256422937	2.1134890398366474e-06
2802.5365716716983	2.511886431509582e-06
2802.69707885387	2.9853826189179636e-06
2803.2284655648978	3.5481338923357534e-06
2804.041967222257	4.216965034285822e-06
2805.185035329781	5.011872336272725e-06
2806.7365404906727	5.95662143529011e-06
2808.876031177397	7.079457843841388e-06
2811.7200653725313	8.413951416451948e-06
2815.3084622383985	1e-05       
2819.67312832547	1.188502227437019e-05
2824.790077908568	1.4125375446227555e-05
2830.334042606071	1.678804018122562e-05
2836.2172637388217	1.9952623149688786e-05
2842.3462235817146	2.371373705661655e-05
2848.6072859419523	2.818382931264455e-05
2854.8847702675166	3.349654391578279e-05
2860.428922292502	3.981071705534977e-05
2865.86990860485	4.731512589614803e-05
2871.0695765053556	5.623413251903491e-05
2875.8113198756596	6.683439175686148e-05
2879.633852886704	7.943282347242821e-05
2882.2624727869147	9.440608762859246e-05
2884.6443000713293	0.00011220184543019629
2886.3603571534213	0.0001333521432163324
2886.857291821216	0.00015848931924611142
2885.59937225478	0.00018836490894898024
2883.383222981899	0.00022387211385683424
2879.558698514013	0.0002660725059798809
2873.1800882560337	0.0003162277660168379
2863.081884904102	0.00037583740428844437
2848.6646081618387	0.0004466835921509635
2830.450517523948	0.0005308844442309889
2807.8790743507247	0.000630957344480193
2780.608441300292	0.0007498942093324559
2748.8131884197746	0.0008912509381337458
2714.9853990886327	0.0010592537251772895
2679.6052228374756	0.0012589254117941673
2643.0394659588214	0.0014962356560944345
2605.8532327033977	0.0017782794100389225
2570.1186212249613	0.0021134890398366475
2536.0325085322843	0.002511886431509582
2501.8252577457542	0.0029853826189179603
2467.155693377471	0.0035481338923357567
2431.50610638777	0.004216965034285822
2395.3101311059327	0.0050118723362727255
2356.90129275977	0.005956621435290103
2315.4814276793454	0.00707945784384138
2270.2443557500014	0.008413951416451957
2219.9      	0.01        
2161.810538075531	0.01188502227437019
2096.328769876216	0.014125375446227554
2025.9270356505858	0.016788040181225587
1955.3734485312823	0.01995262314968883
1896.6905296451791	0.023713737056616554
1864.208585899468	0.02818382931264455
1844.4112272238788	0.033496543915782793
1833.927944293847	0.03981071705534969
1829.229207969549	0.04731512589614813
1828.5238383772294	0.056234132519034905
1831.4603444201084	0.06683439175686148
1837.0899703085745	0.07943282347242821
1844.9476444610796	0.09440608762859228
1854.411905295941	0.11220184543019629
1865.3730085281722	0.1333521432163324
1877.4141228239168	0.1584893192461114
1890.2879827911054	0.18836490894898023
1903.7226074776215	0.22387211385683378
1917.2841701636669	0.26607250597988086
1930.4014006436262	0.3162277660168379
1943.1123747339789	0.3758374042884443
1955.3564981730547	0.4466835921509634
1967.0802361977821	0.5308844442309879
1977.7179066967135	0.630957344480193
1987.2305305494483	0.7498942093324559
1996.0903252312396	0.8912509381337458
2004.249223037342	1.0592537251772898
2011.6367583244341	1.2589254117941662
2017.3756335133949	1.4962356560944328
2022.2886222637726	1.7782794100389228
2026.5518972330146	2.1134890398366473
2030.2497192698124	2.511886431509582
2033.540116504345	2.9853826189179573
2036.1668327437897	3.548133892335753
2038.5514207871213	4.216965034285823
2040.6150431808437	5.011872336272725
2042.3118958644975	5.956621435290109
2043.658982593176	7.079457843841373
2044.558439976259	8.413951416451948
2045.5      	10.0        
