# T(K)	P(bar)
3036.9      	1e-08       
2960.6527724938414	1.1885022274370215e-08
2917.158936495824	1.4125375446227554e-08
2895.0551045477937	1.6788040181225588e-08
2883.6326997850656	1.9952623149688826e-08
2875.044955557831	2.3713737056616554e-08
2867.2063260919135	2.818382931264461e-08
2859.5968437057304	3.3496543915782795e-08
2852.3464885152653	3.981071705534969e-08
2845.62579797523	4.731512589614813e-08
2839.904466837526	5.6234132519034905e-08
2835.1383266502835	6.683439175686162e-08
2830.9704502737873	7.94328234724282e-08
2827.35078517964	9.440608762859226e-08
2824.2272494534927	1.1220184543019653e-07
2821.670620050773	1.333521432163324e-07
2819.3340461638204	1.584893192461114e-07
2817.230288172699	1.883649089489802e-07
2815.363677899823	2.2387211385683422e-07
2813.688426038606	2.6607250597988136e-07
2812.213961104536	3.162277660168379e-07
2810.730596729902	3.7583740428844433e-07
2809.1375475688706	4.466835921509635e-07
2807.3546246759497	5.308844442309889e-07
2805.4634832539173	6.309573444801942e-07
2803.408063431115	7.498942093324558e-07
2801.20168755415	8.912509381337459e-07
2798.9469997633523	1.0592537251772896e-06
2796.786230295799	1.2589254117941687e-06
2794.84742111034	1.4962356560944327e-06
2793.2636029498053	1.7782794100389227e-06
2791.921282114683	2.1134890398366474e-06
2790.8171416415094	2.511886431509582e-06
2790.0146057306474	2.9853826189179636e-06
2789.471534435102	3.5481338923357534e-06
2789.1395081944356	4.216965034285822e-06
2789.065003925531	5.011872336272725e-06
2789.29971570094	5.95662143529011e-06
2789.933638867377	7.079457843841388e-06
2791.172134508764	8.413951416451948e-06
2793.0222929936303	1e-05       
2795.5091885137754	1.188502227437019e-05
2798.6106127589514	1.4125375446227555e-05
2802.124393201031	1.678804018122562e-05
2805.9280933368973	1.9952623149688786e-05
2810.0600290758775	2.371373705661655e-05
2814.412736421352	2.818382931264455e-05
2818.757690876504	3.349654391578279e-05
2822.530794337953	3.981071705534977e-05
2826.4042815977173	4.731512589614803e-05
2830.384651641502	5.623413251903491e-05
2834.2927665630496	6.683439175686148e-05
2837.4782107389196	7.943282347242821e-05
2839.9192926180112	9.440608762859246e-05
2842.6427276772133	0.00011220184543019629
2845.10750002465	0.0001333521432163324
2846.573242216478	0.00015848931924611142
2846.3373822977715	0.00018836490894898024
2845.7795414146835	0.00022387211385683424
2844.2816437840056	0.0002660725059798809
2841.026393843012	0.0003162277660168379
2835.0311248621256	0.00037583740428844437
2826.4272661610976	0.0004466835921509635
2816.5064753227402	0.0005308844442309889
2804.160766379763	0.000630957344480193
2788.8337726293853	0.0007498942093324559
2770.733704238965	0.0008912509381337458
2751.405942336362	0.0010592537251772895
2730.450971143436	0.0012589254117941673
2707.8575114199307	0.0014962356560944345
2683.679044247081	0.0017782794100389225
2658.5383220122517	0.0021134890398366475
2633.6479551271086	0.002511886431509582
2608.2879804369227	0.0029853826189179603
2582.500026488562	0.0035481338923357567
2556.3055175656773	0.004216965034285822
2531.2647674245786	0.0050118723362727255
2506.6513091691595	0.005956621435290103
2482.0458956010857	0.00707945784384138
2457.5652907600006	0.008413951416451957
2433.4      	0.01        
2410.7797327075577	0.01188502227437019
2388.2317605060935	0.014125375446227554
2365.7155965498523	0.016788040181225587
2343.209474444753	0.01995262314968883
2321.024468524397	0.023713737056616554
2299.5046037588504	0.02818382931264455
2277.6328025011007	0.033496543915782793
2255.3918795447635	0.03981071705534969
2232.718923463243	0.04731512589614813
2209.9903477107196	0.056234132519034905
2187.0641189005796	0.06683439175686148
2163.277055923468	0.07943282347242821
2138.488534047285	0.09440608762859228
2112.555381018845	0.11220184543019629
2086.3876768235887	0.1333521432163324
2058.76425021	0.1584893192461114
2029.6295627344045	0.18836490894898023
1998.945818744227	0.22387211385683378
1966.7969377884838	0.26607250597988086
1935.4095878708479	0.3162277660168379
1905.06295582278	0.3758374042884443
1876.7137709037654	0.4466835921509634
1851.3826632101316	0.5308844442309879
1831.210488041788	0.630957344480193
1816.7855963127815	0.7498942093324559
1807.094601451819	0.8912509381337458
1802.42418519395	1.0592537251772898
1802.4772460591598	1.2589254117941662
1802.089484222068	1.4962356560944328
1803.2560177923203	1.7782794100389228
1805.8361536559512	2.1134890398366473
1809.8617226735867	2.511886431509582
1815.399220458532	2.9853826189179573
1821.690596617375	3.548133892335753
1828.3007650928425	4.216965034285823
1835.1601727233742	5.011872336272725
1842.1968727103408	5.956621435290109
1849.1700275411463	7.079457843841373
1857.3465015850884	8.413951416451948
1871.3      	10.0        
