# T(K)	P(bar)
3099.0      	1e-08       
3065.5312371693453	1.1885022274370215e-08
3048.4918935582637	1.4125375446227554e-08
3036.410697002916	1.6788040181225588e-08
3020.8344356474104	1.9952623149688826e-08
3002.307172638654	2.3713737056616554e-08
2980.9641349685908	2.818382931264461e-08
2957.1430857066116	3.3496543915782795e-08
2931.5628377651487	3.981071705534969e-08
2905.3009367458244	4.731512589614813e-08
2881.3967450061014	5.6234132519034905e-08
2861.5157348469443	6.683439175686162e-08
2844.989188526702	7.94328234724282e-08
2831.7910586711173	9.440608762859226e-08
2821.468520988386	1.1220184543019653e-07
2813.3337910706414	1.333521432163324e-07
2805.3978849153746	1.584893192461114e-07
2797.2587727627547	1.883649089489802e-07
2788.690266794287	2.2387211385683422e-07
2779.675816302974	2.6607250597988136e-07
2770.7378677961137	3.162277660168379e-07
2761.5794954804433	3.7583740428844433e-07
2752.307068999498	4.466835921509635e-07
2743.0344672107617	5.308844442309889e-07
2734.0515454561087	6.309573444801942e-07
2725.3667816401803	7.498942093324558e-07
2716.4962890059687	8.912509381337459e-07
2707.1284803683607	1.0592537251772896e-06
2696.858338868308	1.2589254117941687e-06
2685.9234550623155	1.4962356560944327e-06
2674.1293924852544	1.7782794100389227e-06
2661.302616107386	2.1134890398366474e-06
2647.3439770245236	2.511886431509582e-06
2632.176048309238	2.9853826189179636e-06
2616.1970232144636	3.5481338923357534e-06
2598.528141897465	4.216965034285822e-06
2578.856972016049	5.011872336272725e-06
2556.9232678268945	5.95662143529011e-06
2532.9134278980987	7.079457843841388e-06
2507.0262589134727	8.413951416451948e-06
2478.1295723384897	1e-05       
2445.1444891326146	1.188502227437019e-05
2406.779376731459	1.4125375446227555e-05
2362.4276591514326	1.678804018122562e-05
2311.045121284509	1.9952623149688786e-05
2251.047558046665	2.371373705661655e-05
2183.913792338273	2.818382931264455e-05
2114.2217618496047	3.349654391578279e-05
2063.323366175778	3.981071705534977e-05
2027.138774801713	4.731512589614803e-05
2001.8766051813132	5.623413251903491e-05
1984.466040373021	6.683439175686148e-05
1972.9984413398884	7.943282347242821e-05
1966.3296130749386	9.440608762859246e-05
1962.0078619705803	0.00011220184543019629
1959.6528571287713	0.0001333521432163324
1958.8445963058698	0.00015848931924611142
1959.2376961703812	0.00018836490894898024
1960.340917170633	0.00022387211385683424
1961.9443053279952	0.0002660725059798809
1963.9648572404471	0.0003162277660168379
1966.3129887809707	0.00037583740428844437
1968.9484049596638	0.0004466835921509635
1971.82672133636	0.0005308844442309889
1974.8201687298854	0.000630957344480193
1977.8500736286874	0.0007498942093324559
1980.89344795982	0.0008912509381337458
1983.8931279717535	0.0010592537251772895
1987.0386649210077	0.0012589254117941673
1990.281077029374	0.0014962356560944345
1993.5668527857536	0.0017782794100389225
1996.8082666587977	0.0021134890398366475
1999.9737889776734	0.002511886431509582
2003.094965317778	0.0029853826189179603
2006.088376369726	0.0035481338923357567
2008.8677086387218	0.004216965034285822
2011.2079656612543	0.0050118723362727255
2013.4144409596947	0.005956621435290103
2015.7354104398914	0.00707945784384138
2018.3585122011998	0.008413951416451957
2021.5      	0.01        
2024.7314667560631	0.01188502227437019
2029.3135548840203	0.014125375446227554
2035.495100453064	0.016788040181225587
2043.4167474590479	0.01995262314968883
2052.8791693390563	0.023713737056616554
2065.0077376158606	0.02818382931264455
2080.2176695080834	0.033496543915782793
2098.7204832695156	0.03981071705534969
2120.679976220884	0.04731512589614813
2146.3867791409793	0.056234132519034905
2177.040441921759	0.06683439175686148
2212.110932690202	0.07943282347242821
2250.892215837563	0.09440608762859228
2292.2707431178633	0.11220184543019629
2333.4134756726467	0.1333521432163324
2372.716834434056	0.1584893192461114
2408.3314351144836	0.18836490894898023
2438.6885860929933	0.22387211385683378
2462.5409816408023	0.26607250597988086
2478.900529019004	0.3162277660168379
2491.2858228906866	0.3758374042884443
2500.239029405523	0.4466835921509634
2506.3907506481005	0.5308844442309879
2510.1730334921644	0.630957344480193
2512.491936568885	0.7498942093324559
2514.071540920267	0.8912509381337458
2515.0934815515993	1.0592537251772898
2515.718203152672	1.2589254117941662
2516.0284126223455	1.4962356560944328
2516.1598103710626	1.7782794100389228
2516.2385811923546	2.1134890398366473
2516.3      	2.511886431509582
2516.3      	2.9853826189179573
2516.3      	3.548133892335753
2516.2465027314784	4.216965034285823
2516.2      	5.011872336272725
2516.2      	5.956621435290109
2516.2      	7.079457843841373
2516.131050911249	8.413951416451948
2516.1      	10.0        
