# T(K)	P(bar)
3036.6      	1e-08       
2960.2758328091736	1.1885022274370215e-08
2916.9231889905523	1.4125375446227554e-08
2894.988737184142	1.6788040181225588e-08
2883.6326997850656	1.9952623149688826e-08
2875.044955557831	2.3713737056616554e-08
2867.2063260919135	2.818382931264461e-08
2859.5968437057304	3.3496543915782795e-08
2852.3464885152653	3.981071705534969e-08
2845.6336637563913	4.731512589614813e-08
2839.9907070178338	5.6234132519034905e-08
2835.2383266502834	6.683439175686162e-08
2831.070450273787	7.94328234724282e-08
2827.45078517964	9.440608762859226e-08
2824.329454015508	1.1220184543019653e-07
2821.8502982310524	1.333521432163324e-07
2819.5340461638207	1.584893192461114e-07
2817.4302881726994	1.883649089489802e-07
2815.5636778998232	2.2387211385683422e-07
2813.888426038606	2.6607250597988136e-07
2812.413961104536	3.162277660168379e-07
2810.9816179546438	3.7583740428844433e-07
2809.4676590430126	4.466835921509635e-07
2807.75462467595	5.308844442309889e-07
2805.8634832539174	6.309573444801942e-07
2803.808063431115	7.498942093324558e-07
2801.6464569488344	8.912509381337459e-07
2799.4469997633523	1.0592537251772896e-06
2797.295331872135	1.2589254117941687e-06
2795.5116274215125	1.4962356560944327e-06
2793.963602949805	1.7782794100389227e-06
2792.698444499392	2.1134890398366474e-06
2791.7354274773584	2.511886431509582e-06
2791.0131451575826	2.9853826189179636e-06
2790.698019677201	3.5481338923357534e-06
2790.5465027314785	4.216965034285822e-06
2790.6300078510626	5.011872336272725e-06
2791.0246446261754	5.95662143529011e-06
2791.817048584221	7.079457843841388e-06
2793.2100326862655	8.413951416451948e-06
2795.169517743403	1e-05       
2797.735746106243	1.188502227437019e-05
2800.9037102531966	1.4125375446227555e-05
2804.3394066854526	1.678804018122562e-05
2807.940407736683	1.9952623149688786e-05
2811.754571887161	2.371373705661655e-05
2815.606674121101	2.818382931264455e-05
2819.1412077689315	3.349654391578279e-05
2821.8362816699664	3.981071705534977e-05
2824.170397694722	4.731512589614803e-05
2826.0648702193835	5.623413251903491e-05
2827.2851808359237	6.683439175686148e-05
2827.205544731527	7.943282347242821e-05
2825.6250181420564	9.440608762859246e-05
2823.306682674993	0.00011220184543019629
2819.7485713534466	0.0001333521432163324
2814.316993143776	0.00015848931924611142
2806.53361582645	0.00018836490894898024
2797.2328919275956	0.00022387211385683424
2786.242553534031	0.0002660725059798809
2773.312817104702	0.0003162277660168379
2758.2087745164154	0.00037583740428844437
2742.0862284820564	0.0004466835921509635
2725.677238860308	0.0005308844442309889
2708.9022076790675	0.000630957344480193
2691.8219518376895	0.0007498942093324559
2674.602860227334	0.0008912509381337458
2658.3474358451285	0.0010592537251772895
2641.893700040668	0.0012589254117941673
2624.8634365726575	0.0014962356560944345
2606.844429898722	0.0017782794100389225
2587.712182160267	0.0021134890398366475
2567.1335847811747	0.002511886431509582
2545.052821996011	0.0029853826189179603
2521.709198856374	0.0035481338923357567
2497.2999272777197	0.004216965034285822
2472.1811685692032	0.0050118723362727255
2447.183928963511	0.005956621435290103
2422.2263397520637	0.00707945784384138
2397.3319023904005	0.008413951416451957
2372.2      	0.01        
2348.4256374375354	0.01188502227437019
2324.8199996956046	0.014125375446227554
2301.0765764592393	0.016788040181225587
2276.969821617222	0.01995262314968883
2252.7969119405616	0.023713737056616554
2229.559447066	0.02818382931264455
2206.063716965465	0.033496543915782793
2182.210423766182	0.03981071705534969
2157.9245340893085	0.04731512589614813
2134.255465547025	0.056234132519034905
2111.0366045497417	0.06683439175686148
2087.51531421117	0.07943282347242821
2063.7329025218746	0.09440608762859228
2039.8608137949375	0.11220184543019629
2017.3982712556472	0.1333521432163324
1995.1206862767776	0.1584893192461114
1973.0345519788455	0.18836490894898023
1951.3039814168421	0.22387211385683378
1930.4032201007017	0.26607250597988086
1911.7191908522711	0.3162277660168379
1893.9243093320167	0.3758374042884443
1876.987370749121	0.4466835921509634
1860.9290131541175	0.5308844442309879
1846.5090598111217	0.630957344480193
1833.8811166288287	0.7498942093324559
1822.6799786910174	0.8912509381337458
1813.0089250231588	1.0592537251772898
1804.6311514789966	1.2589254117941662
1794.937105551698	1.4962356560944328
1786.4199110383981	1.7782794100389228
1779.152085803997	2.1134890398366473
1773.2028498490552	2.511886431509582
1768.3876343838851	2.9853826189179573
1764.9027213685138	3.548133892335753
1761.767103796186	4.216965034285823
1758.8299293404377	5.011872336272725
1755.9637438083873	5.956621435290109
1753.1903299552262	7.079457843841373
1749.7283419174623	8.413951416451948
1743.3      	10.0        
