# T(K)	P(bar)
3036.6      	1e-08       
2960.1988931245055	1.1885022274370215e-08
2916.8231889905524	1.4125375446227554e-08
2894.888737184142	1.6788040181225588e-08
2883.5326997850657	1.9952623149688826e-08
2874.944955557831	2.3713737056616554e-08
2867.106326091913	2.818382931264461e-08
2859.4968437057305	3.3496543915782795e-08
2852.2464885152654	3.981071705534969e-08
2845.5336637563914	4.731512589614813e-08
2839.890707017834	5.6234132519034905e-08
2835.074569474865	6.683439175686162e-08
2830.91273255975	7.94328234724282e-08
2827.35078517964	9.440608762859226e-08
2824.2272494534927	1.1220184543019653e-07
2821.670620050773	1.333521432163324e-07
2819.3914928478266	1.584893192461114e-07
2817.294050179895	1.883649089489802e-07
2815.363677899823	2.2387211385683422e-07
2813.688426038606	2.6607250597988136e-07
2812.213961104536	3.162277660168379e-07
2810.730596729902	3.7583740428844433e-07
2809.1676590430125	4.466835921509635e-07
2807.4546246759496	5.308844442309889e-07
2805.5634832539176	6.309573444801942e-07
2803.508063431115	7.498942093324558e-07
2801.3464569488347	8.912509381337459e-07
2799.1469997633526	1.0592537251772896e-06
2796.9907810839672	1.2589254117941687e-06
2795.1295242659257	1.4962356560944327e-06
2793.5636029498055	1.7782794100389227e-06
2792.298444499392	2.1134890398366474e-06
2791.3354274773583	2.511886431509582e-06
2790.6131451575825	2.9853826189179636e-06
2790.2225245965014	3.5481338923357534e-06
2789.993005462957	4.216965034285822e-06
2790.0300078510627	5.011872336272725e-06
2790.4246446261754	5.95662143529011e-06
2791.217048584221	7.079457843841388e-06
2792.541083597515	8.413951416451948e-06
2794.4222929936304	1e-05       
2796.935746106243	1.188502227437019e-05
2800.103710253197	1.4125375446227555e-05
2803.5394066854524	1.678804018122562e-05
2807.1404077366833	1.9952623149688786e-05
2810.9134804494183	2.371373705661655e-05
2814.7066741211015	2.818382931264455e-05
2818.240030404105	3.349654391578279e-05
2820.8581021936816	3.981071705534977e-05
2823.170397694722	4.731512589614803e-05
2825.0648702193835	5.623413251903491e-05
2826.2703616718477	6.683439175686148e-05
2826.1110894630538	7.943282347242821e-05
2824.5250181420565	9.440608762859246e-05
2822.156879224258	0.00011220184543019629
2818.490714208242	0.0001333521432163324
2812.9080738826024	0.00015848931924611142
2805.046076592374	0.00018836490894898024
2795.6027772812663	0.00022387211385683424
2784.4555280900313	0.0002660725059798809
2771.3211126577435	0.0003162277660168379
2755.895481718654	0.00037583740428844437
2739.462886722096	0.0004466835921509635
2722.742847140691	0.0005308844442309889
2705.5405976498782	0.000630957344480193
2687.9364158339145	0.0007498942093324559
2670.316880232621	0.0008912509381337458
2653.8990703081154	0.0010592537251772895
2637.393700040668	0.0012589254117941673
2620.550911259883	0.0014962356560944345
2603.024136471899	0.0017782794100389225
2584.4453008581104	0.0021134890398366475
2564.610118678168	0.002511886431509582
2543.4971685203413	0.0029853826189179603
2521.239167222272	0.0035481338923357567
2497.8390592934215	0.004216965034285822
2473.266360556829	0.0050118723362727255
2448.567619066335	0.005956621435290103
2423.7661917017376	0.00707945784384138
2398.931902390401	0.008413951416451957
2373.8      	0.01        
2350.0256374375354	0.01188502227437019
2326.4747505271807	0.014125375446227554
2302.8438417319358	0.016788040181225587
2278.9105799565255	0.01995262314968883
2254.976218730622	0.023713737056616554
2231.9701502513885	0.02818382931264455
2208.8059883493743	0.033496543915782793
2185.3488656182253	0.03981071705534969
2161.4638629951146	0.04731512589614813
2138.186666448564	0.056234132519034905
2115.546661953093	0.06683439175686148
2092.6958547848353	0.07943282347242821
2069.5853256947603	0.09440608762859228
2046.2717963757807	0.11220184543019629
2024.195208175653	0.1333521432163324
2002.3646154399441	0.1584893192461114
1980.6432659572579	0.18836490894898023
1959.071950740635	0.22387211385683378
1938.011641628188	0.26607250597988086
1919.027393190068	0.3162277660168379
1900.9202244330488	0.3758374042884443
1883.546478955983	0.4466835921509634
1866.8472213794341	0.5308844442309879
1851.7968875624276	0.630957344480193
1838.6829085024099	0.7498942093324559
1827.0561317175948	0.8912509381337458
1816.8670730836595	1.0592537251772898
1807.7675577843406	1.2589254117941662
1798.6939307963892	1.4962356560944328
1790.5591525226496	1.7782794100389228
1783.5292481887057	2.1134890398366473
1777.8491365358477	2.511886431509582
1773.6759497993671	2.9853826189179573
1771.1086623369101	3.548133892335753
1769.1230600925285	4.216965034285823
1767.6124705585157	5.011872336272725
1766.4753553738249	5.956621435290109
1765.6829514157787	7.079457843841373
1764.841560023741	8.413951416451948
1763.0      	10.0        
