# T(K)	P(bar)
3029.1      	1e-08       
2945.851261189038	1.1885022274370215e-08
2898.50690988539	1.4125375446227554e-08
2874.517880275269	1.6788040181225588e-08
2862.083252540952	1.9952623149688826e-08
2852.6208306609437	2.3713737056616554e-08
2843.8635133503585	2.818382931264461e-08
2835.2669381075675	3.3496543915782795e-08
2826.9588513295444	3.981071705534969e-08
2819.1078112578116	4.731512589614813e-08
2812.2108641329082	5.6234132519034905e-08
2806.218211843581	6.683439175686162e-08
2800.7093691264577	7.94328234724282e-08
2795.6152903999687	9.440608762859226e-08
2790.8765445271392	1.1220184543019653e-07
2786.5380219043423	1.333521432163324e-07
2782.2978790636657	1.584893192461114e-07
2778.0793863813774	1.883649089489802e-07
2773.8832177567133	2.2387211385683422e-07
2769.8147489508997	2.6607250597988136e-07
2765.8066303913615	3.162277660168379e-07
2761.644853863932	3.7583740428844433e-07
2757.2535344997486	4.466835921509635e-07
2752.5456658025328	5.308844442309889e-07
2747.502622010447	6.309573444801942e-07
2742.021502482973	7.498942093324558e-07
2736.152756609295	8.912509381337459e-07
2729.892628902157	1.0592537251772896e-06
2723.2040814293814	1.2589254117941687e-06
2716.457025463982	1.4962356560944327e-06
2709.5170666043414	1.7782794100389227e-06
2702.157624341616	2.1134890398366474e-06
2694.2982730716953	2.511886431509582e-06
2685.9518995987346	2.9853826189179636e-06
2677.193560800235	3.5481338923357534e-06
2667.712841434822	4.216965034285822e-06
2657.3822271755794	5.011872336272725e-06
2646.068008294286	5.95662143529011e-06
2633.785746944572	7.079457843841388e-06
2620.640756734859	8.413951416451948e-06
2606.043949044586	1e-05       
2589.4855233625412	1.188502227437019e-05
2570.3811034002565	1.4125375446227555e-05
2548.6737486691873	1.678804018122562e-05
2523.5417746427893	1.9952623149688786e-05
2492.837584517495	2.371373705661655e-05
2454.765961665382	2.818382931264455e-05
2407.518153744862	3.349654391578279e-05
2349.84357226272	3.981071705534977e-05
2283.471616296722	4.731512589614803e-05
2214.7657649916105	5.623413251903491e-05
2151.6012681173047	6.683439175686148e-05
2107.0050496551216	7.943282347242821e-05
2080.4900423842064	9.440608762859246e-05
2061.438523655843	0.00011220184543019629
2048.5624998767485	0.0001333521432163324
2040.5559250683873	0.00015848931924611142
2035.760106721348	0.00018836490894898024
2032.2025351039242	0.00022387211385683424
2029.3075928960066	0.0002660725059798809
2026.9726994299901	0.0003162277660168379
2025.1534752078358	0.00037583740428844437
2024.0683038401385	0.0004466835921509635
2023.4484124205749	0.0005308844442309889
2023.1252542773746	0.000630957344480193
2023.0342144015099	0.0007498942093324559
2023.1943919978853	0.0008912509381337458
2023.7192793795457	0.0010592537251772895
2024.5781132676366	0.0012589254117941673
2025.7624240616765	0.0014962356560944345
2027.2618930261544	0.0017782794100389225
2029.0802471500572	0.0021134890398366475
2031.1266415218824	0.002511886431509582
2033.4267673038746	0.0029853826189179603
2035.9122298237492	0.0035481338923357567
2038.4844795025938	0.004216965034285822
2041.0587622273797	0.0050118723362727255
2043.6205911310687	0.005956621435290103
2046.5339299366308	0.00707945784384138
2049.9335534784	0.008413951416451957
2053.8      	0.01        
2057.7239239180767	0.01188502227437019
2062.6778073787486	0.014125375446227554
2068.793304634976	0.016788040181225587
2076.0721974232256	0.01995262314968883
2084.103328598695	0.023713737056616554
2093.6495337863257	0.02818382931264455
2105.1042300083036	0.033496543915782793
2118.4223485255984	0.03981071705534969
2133.4124851380525	0.04731512589614813
2149.4792369631123	0.056234132519034905
2167.665479275961	0.06683439175686148
2187.3933943503193	0.07943282347242821
2208.0832068747163	0.09440608762859228
2229.0688976876672	0.11220184543019629
2249.061332456314	0.1333521432163324
2267.7559158363056	0.1584893192461114
2284.512742647189	0.18836490894898023
2298.8062086869263	0.22387211385683378
2310.2936500209885	0.26607250597988086
2318.4137898017266	0.3162277660168379
2324.669443282456	0.3758374042884443
2329.264681913975	0.4466835921509634
2332.4555992958853	0.5308844442309879
2334.425538277169	0.630957344480193
2335.5627842739077	0.7498942093324559
2336.268616368107	0.8912509381337458
2336.6483703879	1.0592537251772898
2336.8045507881684	1.2589254117941662
2336.8821031555867	1.4962356560944328
2336.9      	1.7782794100389228
2336.861418807646	2.1134890398366473
2336.8      	2.511886431509582
2336.8      	2.9853826189179573
2336.7245049193	3.548133892335753
2336.6465027314784	4.216965034285823
2336.567498037234	5.011872336272725
2336.4875355373824	5.956621435290109
2336.408295141578	7.079457843841373
2336.262101822498	8.413951416451948
2336.1      	10.0        
