# T(K)	P(bar)
3036.5      	1e-08       
2960.021953439837	1.1885022274370215e-08
2916.568438158976	1.4125375446227554e-08
2894.588737184142	1.6788040181225588e-08
2883.2326997850655	1.9952623149688826e-08
2874.644955557831	2.3713737056616554e-08
2866.8063260919134	2.818382931264461e-08
2859.1968437057308	3.3496543915782795e-08
2851.918800144857	3.981071705534969e-08
2845.1336637563913	4.731512589614813e-08
2839.4907070178338	5.6234132519034905e-08
2834.6745694748647	6.683439175686162e-08
2830.4704502737873	7.94328234724282e-08
2826.85078517964	9.440608762859226e-08
2823.7272494534927	1.1220184543019653e-07
2821.170620050773	1.333521432163324e-07
2818.8340461638204	1.584893192461114e-07
2816.730288172699	1.883649089489802e-07
2814.8476625617195	2.2387211385683422e-07
2813.092636802349	2.6607250597988136e-07
2811.613961104536	3.162277660168379e-07
2810.07957550516	3.7583740428844433e-07
2808.4676590430126	4.466835921509635e-07
2806.75462467595	5.308844442309889e-07
2804.8634832539174	6.309573444801942e-07
2802.741695410045	7.498942093324558e-07
2800.50168755415	8.912509381337459e-07
2798.2228145694025	1.0592537251772896e-06
2795.9907810839672	1.2589254117941687e-06
2794.1295242659257	1.4962356560944327e-06
2792.5037925787424	1.7782794100389227e-06
2791.1598633070375	2.1134890398366474e-06
2790.1171416415095	2.511886431509582e-06
2789.3146057306476	2.9853826189179636e-06
2788.8470295158018	3.5481338923357534e-06
2788.5395081944357	4.216965034285822e-06
2788.497505888297	5.011872336272725e-06
2788.8121801635575	5.95662143529011e-06
2789.525343725799	7.079457843841388e-06
2790.703185420013	8.413951416451948e-06
2792.5222929936303	1e-05       
2794.9826309213076	1.188502227437019e-05
2797.9968077474423	1.4125375446227555e-05
2801.3544201698737	1.678804018122562e-05
2804.8778458699453	1.9952623149688786e-05
2808.5723890116747	2.371373705661655e-05
2812.2860678910765	2.818382931264455e-05
2815.7376756744516	3.349654391578279e-05
2818.201743241112	3.981071705534977e-05
2820.4703976947217	4.731512589614803e-05
2822.329877049942	5.623413251903491e-05
2823.4703616718475	6.683439175686148e-05
2823.311089463054	7.943282347242821e-05
2821.510247888701	9.440608762859246e-05
2819.007075773522	0.00011220184543019629
2815.232857063037	0.0001333521432163324
2809.472396837906	0.00015848931924611142
2801.2959196560687	0.00018836490894898024
2791.542547988608	0.00022387211385683424
2779.907426314033	0.0002660725059798809
2766.137703763827	0.0003162277660168379
2750.0522801259303	0.00037583740428844437
2732.612026002225	0.0004466835921509635
2714.705280262224	0.0005308844442309889
2696.0183947009973	0.000630957344480193
2676.625843015797	0.0007498942093324559
2657.084176257998	0.0008912509381337458
2638.892866632466	0.0010592537251772895
2621.0112616549336	0.0012589254117941673
2603.13845344784	0.0014962356560944345
2584.9810697384546	0.0017782794100389225
2566.7975284994272	0.0021134890398366475
2549.0397203691487	0.002511886431509582
2531.198406107236	0.0029853826189179603
2513.111333777818	0.0035481338923357567
2494.368886282908	0.004216965034285822
2474.398693023963	0.0050118723362727255
2453.9128108829	0.005956621435290103
2432.879825537716	0.00707945784384138
2411.2931694376007	0.008413951416451957
2388.9      	0.01        
2366.5105517615625	0.01188502227437019
2344.250763832398	0.014125375446227554
2322.1510250042884	0.016788040181225587
2300.1094744447532	0.01995262314968883
2277.924468524397	0.023713737056616554
2256.6855413393687	0.02818382931264455
2235.5142538224823	0.033496543915782793
2214.3348934713017	0.03981071705534969
2192.9133128371777	0.04731512589614813
2171.125229874414	0.056234132519034905
2149.8942911106337	0.06683439175686148
2128.752911933904	0.07943282347242821
2107.5208204744317	0.09440608762859228
2085.7937615374667	0.11220184543019629
2064.489082015665	0.1333521432163324
2043.724438347861	0.1584893192461114
2023.4405017989504	0.18836490894898023
2003.4481194597752	0.22387211385683378
1983.2653232270136	0.26607250597988086
1964.4732920211695	0.3162277660168379
1946.573288107275	0.3758374042884443
1929.5572592749788	0.4466835921509634
1913.3778932949403	0.5308844442309879
1898.563952155688	0.630957344480193
1884.8855963127814	0.7498942093324559
1872.2845907973276	0.8912509381337458
1860.8801099804612	1.0592537251772898
1850.5539054198366	1.2589254117941662
1841.24762132963	1.4962356560944328
1833.1189628937125	1.7782794100389228
1826.0906669963513	2.1134890398366473
1820.2759931924513	2.511886431509582
1815.7817920916261	2.9853826189179573
1812.982177094811	3.548133892335753
1811.1370491666144	4.216965034285823
1810.2024941117031	5.011872336272725
1810.1371090887926	5.956621435290109
1811.0087534426432	7.079457843841373
1812.6858290412688	8.413951416451948
1815.4      	10.0        
