# T(K)	P(bar)
2525.5      	1e-08       
2495.8782214027538	1.1885022274370215e-08
2467.837208948378	1.4125375446227554e-08
2442.21290282272	1.6788040181225588e-08
2419.557816177094	1.9952623149688826e-08
2399.99684321506	2.3713737056616554e-08
2383.6912458130496	2.818382931264461e-08
2368.826684456061	3.3496543915782795e-08
2355.280614216252	3.981071705534969e-08
2342.91452219975	4.731512589614813e-08
2332.0988551175146	5.6234132519034905e-08
2322.2303530726344	6.683439175686162e-08
2312.9221016862075	7.94328234724282e-08
2304.1789766236743	9.440608762859226e-08
2295.9905666085397	1.1220184543019653e-07
2288.6305728734374	1.333521432163324e-07
2281.472351755436	1.584893192461114e-07
2274.4110566332306	1.883649089489802e-07
2267.4386962611893	2.2387211385683422e-07
2260.6579149181666	2.6607250597988136e-07
2254.2451985092885	3.162277660168379e-07
2247.7142171216715	3.7583740428844433e-07
2241.07063617205	4.466835921509635e-07
2234.2900665066472	5.308844442309889e-07
2227.277083733278	6.309573444801942e-07
2220.1277740405067	7.498942093324558e-07
2212.433521742183	8.912509381337459e-07
2204.0912582776095	1.0592537251772896e-06
2195.0675577843404	1.2589254117941687e-06
2185.9939307963896	1.4962356560944327e-06
2175.9452206486376	1.7782794100389227e-06
2165.4687014168553	2.1134890398366474e-06
2151.7959634094263	2.511886431509582e-06
2127.6396324924904	2.9853826189179636e-06
2170.7606615637233	3.5481338923357534e-06
1673.8940910833512	4.216965034285822e-06
1284.72582296219	5.011872336272725e-06
1398.4515636448295	5.95662143529011e-06
1394.9649862294268	7.079457843841388e-06
1406.0455487326358	8.413951416451948e-06
1416.3474977252047	1e-05       
1424.649528876906	1.188502227437019e-05
1432.2452979546035	1.4125375446227555e-05
1438.4139347306987	1.678804018122562e-05
1443.4788357377524	1.9952623149688786e-05
1447.4436575097288	2.371373705661655e-05
1450.1709121404506	2.818382931264455e-05
1451.5941131758668	3.349654391578279e-05
1451.2091026185763	3.981071705534977e-05
1449.5856879372327	4.731512589614803e-05
1446.6153483584978	5.623413251903491e-05
1442.262658514663	6.683439175686148e-05
1436.6881312068901	7.943282347242821e-05
1429.785302314871	9.440608762859246e-05
1421.5224066161536	0.00011220184543019629
1411.9524998438817	0.0001333521432163324
1401.0729182121636	0.00015848931924611142
1388.4937225477977	0.00018836490894898024
1375.1800257693674	0.00022387211385683424
1363.1387570860277	0.0002660725059798809
1354.2766205247615	0.0003162277660168379
1350.5897263848883	0.00037583740428844437
1352.682556879733	0.0004466835921509635
1357.8292364624324	0.0005308844442309889
1365.9958448319726	0.000630957344480193
1376.8174017155047	0.0007498942093324559
1389.0709878382227	0.0008912509381337458
1400.7015980444817	0.0010592537251772895
1413.519797597373	0.0012589254117941673
1428.0428935844618	0.0014962356560944345
1444.4481304618794	0.0017782794100389225
1461.4457885766224	0.0021134890398366475
1478.1807855647598	0.002511886431509582
1495.2333958788608	0.0029853826189179603
1512.8886662221823	0.0035481338923357567
1531.5640302616036	0.004216965034285822
1550.5981207115353	0.0050118723362727255
1570.458578877176	0.005956621435290103
1590.7419510661969	0.00707945784384138
1611.4706873467994	0.008413951416451957
1633.3      	0.01        
1656.0741466617787	0.01188502227437019
1679.87275778858	0.014125375446227554
1704.6624436313734	0.016788040181225587
1730.5056923413217	0.01995262314968883
1757.461667276808	0.023713737056616554
1785.0141478515152	0.02818382931264455
1813.8218995163863	0.033496543915782793
1843.4277621624226	0.03981071705534969
1873.3732652789456	0.04731512589614813
1902.9987881563725	0.056234132519034905
1933.8941416938262	0.06683439175686148
1965.2860675272182	0.07943282347242821
1997.0405440273362	0.09440608762859228
2029.726929823149	0.11220184543019629
2062.301476048512	0.1333521432163324
2095.304327530445	0.1584893192461114
2128.547480992155	0.18836490894898023
2161.654181255773	0.22387211385683378
2193.803062211516	0.26607250597988086
2226.5764510246163	0.3162277660168379
2257.998277649382	0.3758374042884443
2288.42191427749	0.4466835921509634
2318.6464531284732	0.5308844442309879
2349.0623109994917	0.630957344480193
2376.8606474797866	0.7498942093324559
2403.5739002458795	0.8912509381337458
2429.5150768700228	1.0592537251772898
2455.019728568728	1.2589254117941662
2477.5099151200607	1.4962356560944328
2497.47316165253	1.7782794100389228
2515.617793971502	2.1134890398366473
2532.0097362886836	2.511886431509582
2546.53563627528	2.9853826189179573
2557.369311297957	3.548133892335753
2566.1497268521425	4.216965034285823
2573.1401413191247	5.011872336272725
2578.660616518728	5.956621435290109
2582.860357496372	7.079457843841373
2585.920065372531	8.413951416451948
2589.1      	10.0        
