# T(K)	P(bar)
2432.0      	1e-08       
2408.3795168068714	1.1885022274370215e-08
2387.9955479270166	1.4125375446227554e-08
2370.3071053667395	1.6788040181225588e-08
2354.8582913382947	1.9952623149688826e-08
2341.7381265466865	2.3713737056616554e-08
2330.6969502867305	2.818382931264461e-08
2320.540123955841	3.3496543915782795e-08
2311.098902514232	3.981071705534969e-08
2302.213421883877	4.731512589614813e-08
2294.3759819692136	5.6234132519034905e-08
2286.943068335202	6.683439175686162e-08
2279.4831828335373	7.94328234724282e-08
2271.909625057576	9.440608762859226e-08
2264.1839529224935	1.1220184543019653e-07
2256.5915383325987	1.333521432163324e-07
2248.6829915473622	1.584893192461114e-07
2240.3500587843423	1.883649089489802e-07
2231.526205441872	2.2387211385683422e-07
2222.1926593579465	2.6607250597988136e-07
2212.362474809505	3.162277660168379e-07
2201.6039648618935	3.7583740428844433e-07
2189.6918297148113	4.466835921509635e-07
2176.2347576892444	5.308844442309889e-07
2160.317650720473	6.309573444801942e-07
2141.773466816824	7.498942093324558e-07
2112.32407631424	8.912509381337459e-07
2088.2557414857424	1.0592537251772896e-06
2051.9680991022083	1.2589254117941687e-06
1323.7513690435544	1.4962356560944327e-06
1253.1310944614224	1.7782794100389227e-06
1310.9995051061692	2.1134890398366474e-06
1300.436010211323	2.511886431509582e-06
1307.1773118625608	2.9853826189179636e-06
1310.6217835507866	3.5481338923357534e-06
1314.4818579631142	4.216965034285822e-06
1318.5576001010465	5.011872336272725e-06
1322.635687593493	5.95662143529011e-06
1326.6769477795278	7.079457843841388e-06
1330.4785053487901	8.413951416451948e-06
1334.1723384895358	1e-05       
1337.7419764761141	1.188502227437019e-05
1341.1761002301791	1.4125375446227555e-05
1344.2994606231387	1.678804018122562e-05
1347.2147890693038	1.9952623149688786e-05
1349.9971088832697	2.371373705661655e-05
1352.680005590826	2.818382931264455e-05
1355.3376756744517	3.349654391578279e-05
1357.801743241112	3.981071705534977e-05
1360.4629971184022	4.731512589614803e-05
1363.3297404387663	5.623413251903491e-05
1366.4520432193547	6.683439175686148e-05
1369.956031812812	7.943282347242821e-05
1373.9226843915023	9.440608762859246e-05
1378.4380104948652	0.00011220184543019629
1383.5828572273724	0.0001333521432163324
1389.4313794162663	0.00015848931924611142
1395.8782171942537	0.00018836490894898024
1403.0804457006327	0.00022387211385683424
1411.186399419978	0.0002660725059798809
1420.2886900791848	0.0003162277660168379
1430.4752175199644	0.00037583740428844437
1441.559467918586	0.0004466835921509635
1453.7928646444818	0.0005308844442309889
1467.3392336202367	0.000630957344480193
1482.2727617532512	0.0007498942093324559
1498.5307877853543	0.0008912509381337458
1516.0136712194824	0.0010592537251772895
1535.3579402346334	0.0012589254117941673
1556.6987849868228	0.0014962356560944345
1580.2234356327187	0.0017782794100389225
1606.0756877421188	0.0021134890398366475
1634.637674526957	0.002511886431509582
1665.6701482125363	0.0029853826189179603
1699.5773324443649	0.0035481338923357567
1736.9783731148239	0.004216965034285822
1775.748631121447	0.0050118723362727255
1818.3725092967188	0.005956621435290103
1862.995315213481	0.00707945784384138
1908.8943772027988	0.008413951416451957
1956.5      	0.01        
1999.201524990835	0.01188502227437019
2039.484917451184	0.014125375446227554
2076.123911448089	0.016788040181225587
2108.912170222586	0.01995262314968883
2140.0029849711855	0.023713737056616554
2166.158287973276	0.02818382931264455
2191.5084600166065	0.033496543915782793
2216.760278530765	0.03981071705534969
2242.2911974730146	0.04731512589614813
2266.1170148135907	0.056234132519034905
2288.66206652065	0.06683439175686148
2310.9390400695743	0.07943282347242821
2332.6090089628474	0.09440608762859228
2352.894216137935	0.11220184543019629
2370.262161400273	0.1333521432163324
2385.9057332213333	0.1584893192461114
2400.151744798301	0.18836490894898023
2413.266362067963	0.22387211385683378
2425.551542383557	0.26607250597988086
2436.704715839307	0.3162277660168379
2447.436844115429	0.3758374042884443
2457.914491638494	0.4466835921509634
2468.359788254111	0.5308844442309879
2478.83986363454	0.630957344480193
2489.0605787812165	0.7498942093324559
2499.230482519614	0.8912509381337458
2509.3715196316393	1.0592537251772898
2519.5597469446675	1.2589254117941662
2529.098688137129	1.4962356560944328
2537.7595200747905	1.7782794100389228
2545.688050888966	2.1134890398366473
2552.917724375474	2.511886431509582
2559.5787724356255	2.9853826189179573
2565.211140891078	3.548133892335753
2570.316830648328	4.216965034285823
2574.9551059893433	5.011872336272725
2579.2232231308753	5.956621435290109
2583.185242921106	7.079457843841373
2586.702708993787	8.413951416451948
2590.4      	10.0        
