# T(K)	P(bar)
1053.3      	1e-08       
1057.3778032874131	1.1885022274370215e-08
1061.8850498945637	1.4125375446227554e-08
1066.7861213626227	1.6788040181225588e-08
1072.051027917087	1.9952623149688826e-08
1077.617158434739	2.3713737056616554e-08
1083.156876449329	2.818382931264461e-08
1088.9340707586337	3.3496543915782795e-08
1094.9320045214652	3.981071705534969e-08
1101.1056651494148	4.731512589614813e-08
1107.1404938837056	5.6234132519034905e-08
1113.300574033514	6.683439175686162e-08
1119.667147448947	7.94328234724282e-08
1126.2726275525886	9.440608762859226e-08
1133.1984105813835	1.1220184543019653e-07
1140.1710362251645	1.333521432163324e-07
1147.4574349805882	1.584893192461114e-07
1155.0875612876157	1.883649089489802e-07
1163.033564486573	2.2387211385683422e-07
1171.1705020982001	2.6607250597988136e-07
1179.3326380483788	3.162277660168379e-07
1187.7613134968785	3.7583740428844433e-07
1196.4122621556485	4.466835921509635e-07
1205.234860873732	5.308844442309889e-07
1213.9813899506312	6.309573444801942e-07
1222.6995863808897	7.498942093324558e-07
1231.6484803887154	8.912509381337459e-07
1240.82966769214	1.0592537251772896e-06
1250.2369930038274	1.2589254117941687e-06
1259.3881723591971	1.4962356560944327e-06
1268.6772445275449	1.7782794100389227e-06
1278.168324274891	2.1134890398366474e-06
1287.8308719735878	2.511886431509582e-06
1297.6218100861001	2.9853826189179636e-06
1307.0103998453626	3.5481338923357534e-06
1316.5801640281352	4.216965034285822e-06
1326.3952473084678	5.011872336272725e-06
1336.5079156776587	5.95662143529011e-06
1346.7299267364529	7.079457843841388e-06
1356.9702288038588	8.413951416451948e-06
1367.6170154686079	1e-05       
1378.644620537956	1.188502227437019e-05
1390.0008633343987	1.4125375446227555e-05
1401.3230447588774	1.678804018122562e-05
1412.6965944104777	1.9952623149688786e-05
1424.3637156614836	2.371373705661655e-05
1436.3733594238547	2.818382931264455e-05
1448.7836689129526	3.349654391578279e-05
1460.7959983004216	3.981071705534977e-05
1473.22978674465	4.731512589614803e-05
1486.03887978836	5.623413251903491e-05
1499.1599812366562	6.683439175686148e-05
1512.3795745665175	7.943282347242821e-05
1525.4703143568345	9.440608762859246e-05
1538.965800427976	0.00011220184543019629
1552.8782144958284	0.0001333521432163324
1567.2322247948377	0.00015848931924611142
1581.6196798359563	0.00018836490894898024
1596.1307767549363	0.00022387211385683424
1611.0544426239612	0.0002660725059798809
1626.4393701244333	0.0003162277660168379
1642.371286286943	0.00037583740428844437
1658.028758878003	0.0004466835921509635
1674.029771490171	0.0005308844442309889
1690.4856737369942	0.000630957344480193
1707.3780481623105	0.0007498942093324559
1724.597139772666	0.0008912509381337458
1741.7427573769498	0.0010592537251772895
1759.7060388174582	0.0012589254117941673
1778.6177079574486	0.0014962356560944345
1798.5946898208106	0.0017782794100389225
1819.3871739332637	0.0021134890398366475
1840.7076423364203	0.002511886431509582
1863.3693512661544	0.0029853826189179603
1887.4207695095242	0.0035481338923357567
1912.8727464657263	0.004216965034285822
1939.0056165506735	0.0050118723362727255
1966.6040423732068	0.005956621435290103
1995.9031486747845	0.00707945784384138
2026.818510381599	0.008413951416451957
2059.2      	0.01        
2091.053029452623	0.01188502227437019
2123.814352588251	0.014125375446227554
2157.42840099331	0.016788040181225587
2191.728442520434	0.01995262314968883
2225.8408709786154	0.023713737056616554
2258.438914744678	0.02818382931264455
2291.0600705876577	0.033496543915782793
2323.696855126725	0.03981071705534969
2356.3463124644923	0.04731512589614813
2387.6960721231453	0.056234132519034905
2418.129055588799	0.06683439175686148
2448.2827040939255	0.07943282347242821
2478.004230251042	0.09440608762859228
2507.1599945943353	0.11220184543019629
2533.8680348644198	0.1333521432163324
2559.858782446973	0.1584893192461114
2585.242491747714	0.18836490894898023
2610.0206167692004	0.22387211385683378
2634.0325601133163	0.26607250597988086
2656.601229340817	0.3162277660168379
2679.1430915009555	0.3758374042884443
2701.6914357081173	0.4466835921509634
2724.2320401984125	0.5308844442309879
2746.058964111034	0.630957344480193
2766.952997667782	0.7498942093324559
2787.6400426179653	0.8912509381337458
2808.0462984874785	1.0592537251772898
2828.078536795823	1.2589254117941662
2846.4584478739803	1.4962356560944328
2863.977902375958	1.7782794100389228
2881.002050394439	2.1134890398366473
2897.5388813339673	2.511886431509582
2913.5093459601144	2.9853826189179573
2927.8420850101434	3.548133892335753
2941.4945356486423	4.216965034285823
2954.4703061914365	5.011872336272725
2966.7450247664515	5.956621435290109
2977.838680179096	7.079457843841373
2988.3770760701113	8.413951416451948
3000.2      	10.0        
