# T(K)	P(bar)
1040.3      	1e-08       
1040.6846984233407	1.1885022274370215e-08
1041.0737541578803	1.4125375446227554e-08
1041.5690610907843	1.6788040181225588e-08
1042.2086889048098	1.9952623149688826e-08
1042.8448181068275	2.3713737056616554e-08
1043.6725783464253	2.818382931264461e-08
1044.629905598163	3.3496543915782795e-08
1045.7707022969469	3.981071705534969e-08
1047.1573156232246	4.731512589614813e-08
1048.7248036061574	5.6234132519034905e-08
1050.593929385473	6.683439175686162e-08
1052.768468578883	7.94328234724282e-08
1055.2838906034092	9.440608762859226e-08
1058.1947961666608	1.1220184543019653e-07
1061.5261617520232	1.333521432163324e-07
1065.387227568322	1.584893192461114e-07
1069.7742795682518	1.883649089489802e-07
1074.7050583291523	2.2387211385683422e-07
1080.2094573017237	2.6607250597988136e-07
1086.0441555818563	3.162277660168379e-07
1092.3857828783284	3.7583740428844433e-07
1099.1196982503766	4.466835921509635e-07
1106.0792615778466	5.308844442309889e-07
1112.855851673462	6.309573444801942e-07
1119.308545748795	7.498942093324558e-07
1125.5024739960206	8.912509381337459e-07
1131.3445931885942	1.0592537251772896e-06
1136.7730472900816	1.2589254117941687e-06
1141.426189335185	1.4962356560944327e-06
1145.7297600373952	1.7782794100389227e-06
1149.7518972330147	2.1134890398366474e-06
1153.4497192698125	2.511886431509582e-06
1156.7401165043452	2.9853826189179636e-06
1159.2158425823902	3.5481338923357534e-06
1161.2304371759928	4.216965034285822e-06
1162.7550274787186	5.011872336272725e-06
1163.824644626175	5.95662143529011e-06
1164.6170485842213	7.079457843841388e-06
1165.2515927100067	8.413951416451948e-06
1165.9722474977252	1e-05       
1166.845248702081	1.188502227437019e-05
1167.8966350805626	1.4125375446227555e-05
1168.9898112180986	1.678804018122562e-05
1170.0758661343311	1.9952623149688786e-05
1171.1341886906619	2.371373705661655e-05
1172.1060623002504	2.818382931264455e-05
1172.9070641889598	3.349654391578279e-05
1173.3690768577085	3.981071705534977e-05
1173.6682568958631	4.731512589614803e-05
1173.625034152794	5.623413251903491e-05
1173.0925317029325	6.683439175686148e-05
1171.9776262413782	7.943282347242821e-05
1170.1818379731528	9.440608762859246e-05
1167.5078619705803	0.00011220184543019629
1163.9957142246756	0.0001333521432163324
1159.7559250683873	0.00015848931924611142
1154.960106721348	0.00018836490894898024
1149.515872732152	0.00022387211385683424
1143.6060076840158	0.0002660725059798809
1137.686876625189	0.0003162277660168379
1132.4338400279844	0.00037583740428844437
1128.5582280004942	0.0004466835921509635
1125.1388869440232	0.0005308844442309889
1122.8767799416214	0.000630957344480193
1122.1539648067944	0.0007498942093324559
1122.8747639904839	0.0008912509381337458
1124.3094726016236	0.0010592537251772895
1126.7821772438606	0.0012589254117941673
1130.537238434663	0.0014962356560944345
1135.676772304952	0.0017782794100389225
1141.7643056762788	0.0021134890398366475
1148.385844903844	0.002511886431509582
1156.0325989324788	0.0029853826189179603
1164.6189509290991	0.0035481338923357567
1173.870834554887	0.004216965034285822
1183.2318626450174	0.0050118723362727255
1193.649744729924	0.005956621435290103
1206.4921665386964	0.00707945784384138
1221.7870513139994	0.008413951416451957
1238.3      	0.01        
1255.457549681002	0.01188502227437019
1273.6854487466792	0.014125375446227554
1292.9754243597065	0.016788040181225587
1313.4497672159432	0.01995262314968883
1335.3962246855426	0.023713737056616554
1357.5977401924454	0.02818382931264455
1380.0579231595896	0.033496543915782793
1402.6081204552365	0.03981071705534969
1425.2968080990795	0.04731512589614813
1448.1821326498962	0.056234132519034905
1472.6022961340557	0.06683439175686148
1498.9988000869682	0.07943282347242821
1527.6268239866479	0.09440608762859228
1558.8928253082072	0.11220184543019629
1593.7830975685483	0.1333521432163324
1632.6779080323338	0.1584893192461114
1675.138227941568	0.18836490894898023
1721.1095863147846	0.22387211385683378
1770.9682726605397	0.26607250597988086
1823.789197898911	0.3162277660168379
1877.4005601730157	0.3758374042884443
1930.4520122959002	0.4466835921509634
1981.9388625379625	0.5308844442309879
2030.793349273795	0.630957344480193
2077.2880765997525	0.7498942093324559
2124.8884083362723	0.8912509381337458
2174.326894515845	1.0592537251772898
2225.9625630973865	1.2589254117941662
2276.4491542867568	1.4962356560944328
2324.5245159772903	1.7782794100389228
2369.370869563161	2.1134890398366473
2410.3943428490684	2.511886431509582
2448.113530659566	2.9853826189179573
2479.9794683289733	3.548133892335753
2510.1079784270128	4.216965034285823
2538.713177154138	5.011872336272725
2565.863983411428	5.956621435290109
2590.428506110856	7.079457843841373
2612.37469393898	8.413951416451948
2637.1      	10.0        
