# T(K)	P(bar)
927.4       	1e-08       
928.4002159006862	1.1885022274370215e-08
929.576013305217	1.4125375446227554e-08
930.9053874542648	1.6788040181225588e-08
932.3988944882274	1.9952623149688826e-08
934.1482497937751	2.3713737056616554e-08
935.9856254831097	2.818382931264461e-08
938.0082654731082	3.3496543915782795e-08
940.2583394826678	3.981071705534969e-08
942.7595707783206	4.731512589614813e-08
945.3459259501594	5.6234132519034905e-08
948.0952583150813	6.683439175686162e-08
951.0067268665852	7.94328234724282e-08
954.1145390373107	9.440608762859226e-08
957.5014098527071	1.1220184543019653e-07
961.0651962928619	1.333521432163324e-07
964.8723342003096	1.584893192461114e-07
968.9568516114267	1.883649089489802e-07
973.3609202862193	2.2387211385683422e-07
978.1473541754118	2.6607250597988136e-07
983.0687625952474	3.162277660168379e-07
988.3204645071984	3.7583740428844433e-07
993.9282490865273	4.466835921509635e-07
999.8974698031631	5.308844442309889e-07
1006.0436794247678	6.309573444801942e-07
1012.2758097066554	7.498942093324558e-07
1018.805398548181	8.912509381337459e-07
1025.6041118736425	1.0592537251772896e-06
1032.6141217232907	1.2589254117941687e-06
1039.6713871583638	1.4962356560944327e-06
1046.981985250973	1.7782794100389227e-06
1054.5809568507382	2.1134890398366474e-06
1062.428583584908	2.511886431509582e-06
1070.4539426935248	2.9853826189179636e-06
1078.3004982313687	3.5481338923357534e-06
1086.3637159262282	4.216965034285822e-06
1094.5802041276243	5.011872336272725e-06
1102.9336975000733	5.95662143529011e-06
1111.4124198511663	7.079457843841388e-06
1119.8154506738392	8.413951416451948e-06
1128.536396724295	1e-05       
1137.660353503665	1.188502227437019e-05
1147.2628132193092	1.4125375446227555e-05
1157.0233144473082	1.678804018122562e-05
1167.0330426759326	1.9952623149688786e-05
1177.4884355330785	2.371373705661655e-05
1188.3848722035043	2.818382931264455e-05
1199.6671858053799	3.349654391578279e-05
1210.601485632435	3.981071705534977e-05
1221.8324166333805	4.731512589614803e-05
1233.448975416183	5.623413251903491e-05
1245.467332103665	6.683439175686148e-05
1257.6516560763687	7.943282347242821e-05
1269.739643258959	9.440608762859246e-05
1282.2183555684146	0.00011220184543019629
1294.9864287615876	0.0001333521432163324
1307.9627588325322	0.00015848931924611142
1320.8564343885073	0.00018836490894898024
1333.8946876148098	0.00022387211385683424
1347.2841881839652	0.0002660725059798809
1361.0349956661628	0.0003162277660168379
1375.2014990986963	0.00037583740428844437
1389.2312146382105	0.0004466835921509635
1403.4820191023744	0.0005308844442309889
1418.200843649426	0.000630957344480193
1433.4701185487215	0.0007498942093324559
1449.2476117916985	0.0008912509381337458
1464.9332847753262	0.0010592537251772895
1481.1019748412339	0.0012589254117941673
1497.6928598340958	0.0014962356560944345
1514.6367438085683	0.0017782794100389225
1531.555343048359	0.0021134890398366475
1548.0778253956616	0.002511886431509582
1564.895321623647	0.0029853826189179603
1581.9571691283156	0.0035481338923357567
1599.1851410469671	0.004216965034285822
1615.7229573395307	0.0050118723362727255
1632.18076726626	0.005956621435290103
1649.0478730792402	0.00707945784384138
1666.3982358067994	0.008413951416451957
1684.2      	0.01        
1701.4344893656703	0.01188502227437019
1719.4664454203748	0.014125375446227554
1738.4745264506623	0.016788040181225587
1758.5323894063233	0.01995262314968883
1779.2065884718882	0.023713737056616554
1800.2442242655018	0.02818382931264455
1822.4517402667168	0.033496543915782793
1845.7618878634094	0.03981071705534969
1870.0777210657877	0.04731512589614813
1894.765656796977	0.056234132519034905
1920.2673822390825	0.06683439175686148
1947.141082372931	0.07943282347242821
1975.3695544679927	0.09440608762859228
2004.8478552410795	0.11220184543019629
2034.6435302244681	0.1333521432163324
2065.5859324049725	0.1584893192461114
2097.557577049721	0.18836490894898023
2130.346365313017	0.22387211385683378
2163.452533046598	0.26607250597988086
2195.546956869109	0.3162277660168379
2227.4635960205123	0.3758374042884443
2259.073586389624	0.4466835921509634
2290.3055572411317	0.5308844442309879
2320.4062248751447	0.630957344480193
2349.5543759222523	0.7498942093324559
2378.898984217312	0.8912509381337458
2408.4243365675184	1.0592537251772898
2438.06103768133	1.2589254117941662
2466.3676517890417	1.4962356560944328
2494.252302469446	1.7782794100389228
2521.9876737470013	2.1134890398366473
2549.407469173593	2.511886431509582
2576.2121685963725	2.9853826189179573
2600.631940581803	3.548133892335753
2624.5561750934703	4.216965034285823
2648.123075090326	5.011872336272725
2671.614409860018	5.956621435290109
2695.22804780979	7.079457843841373
2723.624857370308	8.413951416451948
2760.1      	10.0        
