# T(K)	P(bar)
894.9       	1e-08       
895.3616381080091	1.1885022274370215e-08
895.8285049894564	1.4125375446227554e-08
896.3354284544363	1.6788040181225588e-08
896.9222750179111	1.9952623149688826e-08
897.6379203701807	2.3713737056616554e-08
898.4023439512957	2.818382931264461e-08
899.2329970445996	3.3496543915782795e-08
900.1599488153123	3.981071705534969e-08
901.2179867174185	4.731512589614813e-08
902.3936027046179	5.6234132519034905e-08
903.6201148067029	6.683439175686162e-08
904.918798861367	7.94328234724282e-08
906.3354947796716	9.440608762859226e-08
907.9485003643382	1.1220184543019653e-07
909.6529199661513	1.333521432163324e-07
911.5361671001548	1.584893192461114e-07
913.6146637985175	1.883649089489802e-07
915.912490819317	2.2387211385683422e-07
918.4652555602197	2.6607250597988136e-07
921.153229544276	3.162277660168379e-07
924.0898277649383	3.7583740428844433e-07
927.264681913975	4.466835921509635e-07
930.6600787325941	5.308844442309889e-07
934.2059688989045	6.309573444801942e-07
937.9520330324212	7.498942093324558e-07
941.8832391289086	8.912509381337459e-07
946.0060004732954	1.0592537251772896e-06
950.3639457137457	1.2589254117941687e-06
954.8619830240121	1.4962356560944327e-06
959.5484326348353	1.7782794100389227e-06
964.5077775030406	2.1134890398366474e-06
969.7434368377376	2.511886431509582e-06
975.2006810315968	2.9853826189179636e-06
980.5846556489785	3.5481338923357534e-06
986.2587978705855	4.216965034285822e-06
992.1376472074213	5.011872336272725e-06
998.1722280841658	5.95662143529011e-06
1004.3529789569251	7.079457843841388e-06
1010.4469780113146	8.413951416451948e-06
1016.7724294813466	1e-05       
1023.4105105446962	1.188502227437019e-05
1030.4350305294115	1.4125375446227555e-05
1037.6187594332187	1.678804018122562e-05
1045.1310629403183	1.9952623149688786e-05
1053.032418087552	2.371373705661655e-05
1061.3254728427032	2.818382931264455e-05
1070.033042225408	3.349654391578279e-05
1078.7342808201772	3.981071705534977e-05
1087.64984767475	4.731512589614803e-05
1096.7942008246227	5.623413251903491e-05
1106.1338421969203	6.683439175686148e-05
1115.4512664113406	7.943282347242821e-05
1124.6192200497842	9.440608762859246e-05
1134.0760209897305	0.00011220184543019629
1143.8160715752992	0.0001333521432163324
1153.8327461690951	0.00015848931924611142
1163.8174827276855	0.00018836490894898024
1173.7923946882274	0.00022387211385683424
1183.9566538599738	0.0002660725059798809
1194.3033206378825	0.0003162277660168379
1204.8320159272405	0.00037583740428844437
1214.908607198715	0.0004466835921509635
1225.0763288174512	0.0005308844442309889
1235.4705905545982	0.000630957344480193
1246.1094721019158	0.0007498942093324559
1256.9214598572553	0.0008912509381337458
1267.6114048224038	0.0010592537251772895
1278.7114085030512	0.0012589254117941673
1290.318112961841	0.0014962356560944345
1302.4763179165263	0.0017782794100389225
1314.8095024090842	0.0021134890398366475
1327.3275025209946	0.002511886431509582
1340.4702325471799	0.0029853826189179603
1354.167264030621	0.0035481338923357567
1368.2894809684583	0.004216965034285822
1382.0969974014006	0.0050118723362727255
1395.7764860323666	0.005956621435290103
1409.5342392432617	0.00707945784384138
1423.3257842667997	0.008413951416451957
1437.1      	0.01        
1449.795047970248	0.01188502227437019
1462.4696347153222	0.014125375446227554
1475.1812218156867	0.016788040181225587
1487.9330197568952	0.01995262314968883
1500.4170553464862	0.023713737056616554
1512.5268000353424	0.02818382931264455
1525.194955668994	0.033496543915782793
1538.5177764511034	0.03981071705534969
1552.5394379525053	0.04731512589614813
1566.8819529963391	0.056234132519034905
1582.0239207329469	0.06683439175686148
1598.0792800521808	0.07943282347242821
1614.946893098422	0.09440608762859228
1632.4920196217663	0.11220184543019629
1649.7827740162718	0.1333521432163324
1667.4693082003337	0.1584893192461114
1685.2448344025322	0.18836490894898023
1702.8112670160788	0.22387211385683378
1719.803107322712	0.26607250597988086
1735.8734784345545	0.3162277660168379
1751.857308622627	0.3758374042884443
1768.0330751474478	0.4466835921509634
1784.7799457192993	0.5308844442309879
1802.3518014323488	0.630957344480193
1821.2592692253154	0.7498942093324559
1842.135430511655	0.8912509381337458
1865.1699657063232	1.0592537251772898
1890.4700219179697	1.2589254117941662
1917.2255886773137	1.4962356560944328
1945.769078777515	1.7782794100389228
1976.116733364725	2.1134890398366473
2008.2531944000107	2.511886431509582
2042.280717020545	2.9853826189179573
2077.47674696046	3.548133892335753
2115.395136992191	4.216965034285823
2156.443577558324	5.011872336272725
2201.327682523796	5.956621435290109
2251.0906510890886	7.079457843841373
2320.008958005756	8.413951416451948
2421.0      	10.0        
