# T(K)	P(bar)
2403.6      	1e-08       
2395.9829712178507	1.1885022274370215e-08
2391.5647175685335	1.4125375446227554e-08
2389.0937146366914	1.6788040181225588e-08
2387.536966642785	1.9952623149688826e-08
2386.582772839759	2.3713737056616554e-08
2386.008359234093	2.818382931264461e-08
2385.606182892873	3.3496543915782795e-08
2385.316934888774	3.981071705534969e-08
2385.076402656516	4.731512589614813e-08
2384.8412794590768	5.6234132519034905e-08
2384.608728473743	6.683439175686162e-08
2384.330870856149	7.94328234724282e-08
2384.0129010440655	9.440608762859226e-08
2383.6889771899228	1.1220184543019653e-07
2383.3016090986016	1.333521432163324e-07
2382.8553198959626	1.584893192461114e-07
2382.3463340503704	1.883649089489802e-07
2381.7558619570673	2.2387211385683422e-07
2381.037896873688	2.6607250597988136e-07
2380.197556428942	3.162277660168379e-07
2379.185702853612	3.7583740428844433e-07
2377.9881049395817	4.466835921509635e-07
2376.5852965914564	5.308844442309889e-07
2374.930547847178	6.309573444801942e-07
2373.173535515394	7.498942093324558e-07
2371.191226343519	8.912509381337459e-07
2368.9986293754523	1.0592537251772896e-06
2366.6680271431273	1.2589254117941687e-06
2364.4190084879942	1.4962356560944327e-06
2362.045878497051	1.7782794100389227e-06
2359.565401844657	2.1134890398366474e-06
2356.9782815811313	2.511886431509582e-06
2354.2496594842014	2.9853826189179636e-06
2351.5576721755106	3.5481338923357534e-06
2348.7740983332287	4.216965034285822e-06
2345.832423452141	5.011872336272725e-06
2342.7014214952997	5.95662143529011e-06
2339.5318056631154	7.079457843841388e-06
2336.373087361216	8.413951416451948e-06
2333.1165605095543	1e-05       
2329.731465931418	1.188502227437019e-05
2326.1893872410487	1.4125375446227555e-05
2322.675606798969	1.678804018122562e-05
2319.1847159967924	1.9952623149688786e-05
2315.5687024260687	2.371373705661655e-05
2311.8315071888237	2.818382931264455e-05
2308.0423091234957	3.349654391578279e-05
2304.2692056620467	3.981071705534977e-05
2300.451804034237	4.731512589614803e-05
2296.480355189057	5.623413251903491e-05
2292.3145843039592	6.683439175686148e-05
2288.0938707709315	7.943282347242821e-05
2283.862545355142	9.440608762859246e-05
2279.4612033080766	0.00011220184543019629
2274.8932142164585	0.0001333521432163324
2270.147005807213	0.00015848931924611142
2265.2725674872718	0.00018836490894898024
2260.401388640633	0.00022387211385683424
2255.328160348013	0.0002660725059798809
2250.0639505134495	0.0003162277660168379
2244.6706992386185	0.00037583740428844437
2239.322354640682	0.0004466835921509635
2233.780949046897	0.0005308844442309889
2228.071781124168	0.000630957344480193
2222.21695994338	0.0007498942093324559
2216.2103000793027	0.0008912509381337458
2210.213744056493	0.0010592537251772895
2204.0269952760827	0.0012589254117941673
2197.544108597639	0.0014962356560944345
2190.675201202004	0.0017782794100389225
2183.5599024562976	0.0021134890398366475
2176.2729279785613	0.002511886431509582
2168.5515000744726	0.0029853826189179603
2160.460253072815	0.0035481338923357567
2152.0962489006015	0.004216965034285822
2143.6713236194846	0.0050118723362727255
2135.103466195496	0.005956621435290103
2126.3365816365213	0.00707945784384138
2117.4995046736003	0.008413951416451957
2108.8      	0.01        
2100.644393425174	0.01188502227437019
2092.4511626845133	0.014125375446227554
2084.2022058198036	0.016788040181225587
2075.9278025767744	0.01995262314968883
2067.896671401305	0.023713737056616554
2060.176560487043	0.02818382931264455
2052.5483894289487	0.033496543915782793
2045.0249815519965	0.03981071705534969
2037.5999454766504	0.04731512589614813
2030.6246239526001	0.056234132519034905
2023.534339861459	0.06683439175686148
2016.3100296914256	0.07943282347242821
2009.0184987524938	0.09440608762859228
2001.7001170286576	0.11220184543019629
1994.6757480558897	0.1333521432163324
1987.3544549165276	0.1584893192461114
1979.821152690797	0.18836490894898023
1972.1465122039453	0.22387211385683378
1964.4084440830843	0.26607250597988086
1956.340311367172	0.3162277660168379
1947.9386865031213	0.3758374042884443
1939.257626370209	0.4466835921509634
1930.2628994079137	0.5308844442309879
1920.7283947385013	0.630957344480193
1910.8385252819933	0.7498942093324559
1900.8142868750708	0.8912509381337458
1890.6317395925612	1.0592537251772898
1880.044686503804	1.2589254117941662
1868.8771455955562	1.4962356560944328
1857.268633969506	1.7782794100389228
1845.374239954475	2.1134890398366473
1833.2474096075432	2.511886431509582
1820.7278493981014	2.9853826189179573
1808.5717772494484	3.548133892335753
1796.4079233791792	4.216965034285823
1783.93468203197	5.011872336272725
1770.6816099531432	5.956621435290109
1755.9428963334867	7.079457843841373
1737.300625989797	8.413951416451948
1708.7      	10.0        
