# T(K)	P(bar)
2445.7      	1e-08       
2422.7719739688846	1.1885022274370215e-08
2402.4312954322886	1.4125375446227554e-08
2384.4389421849996	1.6788040181225588e-08
2368.5903607727887	1.9952623149688826e-08
2355.0726152299194	2.3713737056616554e-08
2343.8564814964716	2.818382931264461e-08
2333.640123955841	3.3496543915782795e-08
2324.25427925505	3.981071705534969e-08
2315.513421883877	4.731512589614813e-08
2307.675981969214	5.6234132519034905e-08
2300.243068335202	6.683439175686162e-08
2292.9523119773885	7.94328234724282e-08
2285.69672401351	9.440608762859226e-08
2278.292771170555	1.1220184543019653e-07
2271.010251053717	1.333521432163324e-07
2263.4702249673933	1.584893192461114e-07
2255.639962726776	1.883649089489802e-07
2247.502374161012	2.2387211385683422e-07
2239.0463409567724	2.6607250597988136e-07
2230.356716042766	3.162277660168379e-07
2220.9733681319913	3.7583740428844433e-07
2210.714505094226	4.466835921509635e-07
2199.353940534497	5.308844442309889e-07
2186.6675334950305	6.309573444801942e-07
2171.4936597438964	7.498942093324558e-07
2153.239034960772	8.912509381337459e-07
2127.031588218993	1.0592537251772896e-06
2089.086230295799	1.2589254117941687e-06
2087.1474211103396	1.4962356560944327e-06
1579.508053386825	1.7782794100389227e-06
1293.75536148983	2.1134890398366474e-06
1379.40684389245	2.511886431509582e-06
1370.659202464058	2.9853826189179636e-06
1379.8613900067621	3.5481338923357534e-06
1387.7682514354497	4.216965034285822e-06
1395.152690388265	5.011872336272725e-06
1402.8965884112808	5.95662143529011e-06
1410.503666408523	7.079457843841388e-06
1417.6433161650752	8.413951416451948e-06
1424.7502274795268	1e-05       
1431.8105105446962	1.188502227437019e-05
1438.7798104833757	1.4125375446227555e-05
1445.3388673085908	1.678804018122562e-05
1451.6675112057733	1.9952623149688786e-05
1457.9462235817148	2.371373705661655e-05
1464.1866797119274	2.818382931264455e-05
1470.389479726823	3.349654391578279e-05
1476.2416401976413	3.981071705534977e-05
1482.3307649243934	4.731512589614803e-05
1488.66943989418	5.623413251903491e-05
1495.3040864387092	6.683439175686148e-05
1502.3120636256238	7.943282347242821e-05
1509.7442381918409	9.440608762859246e-05
1517.7791657779624	0.00011220184543019629
1526.4267858492751	0.0001333521432163324
1535.7059883855732	0.00015848931924611142
1545.4548650254567	0.00018836490894898024
1555.912853273544	0.00022387211385683424
1567.3574464659691	0.0002660725059798809
1579.7828084370276	0.0003162277660168379
1593.1480238908607	0.00037583740428844437
1608.262910798072	0.0004466835921509635
1625.3603280181594	0.0005308844442309889
1643.84423243769	0.000630957344480193
1663.2939073894881	0.0007498942093324559
1683.3961957346005	0.0008912509381337458
1705.4646373298724	0.0010592537251772895
1729.8528316909142	0.0012589254117941673
1755.7111077974012	0.0014962356560944345
1782.6813816449612	0.0017782794100389225
1812.4075186270234	0.0021134890398366475
1844.5497304531273	0.002511886431509582
1877.7144947368668	0.0029853826189179603
1912.3773324443646	0.0035481338923357567
1949.482087853082	0.004216965034285822
1984.1178917865643	0.0050118723362727255
2019.1984355607644	0.005956621435290103
2052.1430006244586	0.00707945784384138
2081.8154253179996	0.008413951416451957
2108.8      	0.01        
2132.651302247133	0.01188502227437019
2153.4877078940162	0.014125375446227554
2171.7619557240446	0.016788040181225587
2188.244394846451	0.01995262314968883
2204.30665719739	0.023713737056616554
2219.9575822113025	0.02818382931264455
2234.8186783742844	0.033496543915782793
2248.6855160061996	0.03981071705534969
2261.5955987365073	0.04731512589614813
2273.508507406795	0.056234132519034905
2283.7609184536223	0.06683439175686148
2292.585946310314	0.07943282347242821
2299.954880162753	0.09440608762859228
2306.0054327760927	0.11220184543019629
2309.7105944320583	0.1333521432163324
2311.7317874894998	0.1584893192461114
2312.4275240143916	0.18836490894898023
2312.0918006046527	0.22387211385683378
2311.0547399286606	0.26607250597988086
2309.4680622734345	0.3162277660168379
2307.828554280418	0.3758374042884443
2306.318216413724	0.4466835921509634
2305.077312337975	0.5308844442309879
2304.131741626959	0.630957344480193
2303.6681598946507	0.7498942093324559
2303.4552306053156	0.8912509381337458
2303.42418519395	1.0592537251772898
2303.509101576336	1.2589254117941662
2303.6642063111726	1.4962356560944328
2303.759810371063	1.7782794100389228
2303.8      	2.1134890398366473
2303.8      	2.511886431509582
2303.8      	2.9853826189179573
2303.8      	3.548133892335753
2303.7465027314784	4.216965034285823
2303.667498037234	5.011872336272725
2303.5750710747648	5.956621435290109
2303.416590283156	7.079457843841373
2303.3310509112493	8.413951416451948
2303.2      	10.0        
