# T(K)	P(bar)
1107.3      	1e-08       
1111.300863602745	1.1885022274370215e-08
1115.7302990629878	1.4125375446227554e-08
1120.5524887262748	1.6788040181225588e-08
1125.7374418039858	1.9952623149688826e-08
1131.2240561713857	2.3713737056616554e-08
1136.7568764493292	2.818382931264461e-08
1142.5340707586338	3.3496543915782795e-08
1148.5320045214653	3.981071705534969e-08
1154.7371282740596	4.731512589614813e-08
1161.085454604937	5.6234132519034905e-08
1167.5556027351897	6.683439175686162e-08
1174.3208411647233	7.94328234724282e-08
1181.4250507254735	9.440608762859226e-08
1188.9160470775064	1.1220184543019653e-07
1196.5084616674014	1.333521432163324e-07
1204.4170084526377	1.584893192461114e-07
1212.7499412156576	1.883649089489802e-07
1221.525748543817	2.2387211385683422e-07
1230.6199729332825	2.6607250597988136e-07
1239.7809804505384	3.162277660168379e-07
1249.3266318680087	3.7583740428844433e-07
1259.2241572160672	4.466835921509635e-07
1269.4393403104405	5.308844442309889e-07
1279.7618205723666	6.309573444801942e-07
1290.1596828444258	7.498942093324558e-07
1300.8781764664586	8.912509381337459e-07
1311.910112346938	1.0592537251772896e-06
1323.259864284364	1.2589254117941687e-06
1334.50495756003	1.4962356560944327e-06
1345.9519349173054	1.7782794100389227e-06
1357.7257600455252	2.1134890398366474e-06
1369.8160187207586	2.511886431509582e-06
1382.1750717480284	2.9853826189179636e-06
1394.3282227505517	3.5481338923357534e-06
1406.866557500471	4.216965034285822e-06
1419.827827781858	5.011872336272725e-06
1433.2688164954466	5.95662143529011e-06
1447.0566453654483	7.079457843841388e-06
1461.048734152649	8.413951416451948e-06
1475.672702456779	1e-05       
1490.9849609010867	1.188502227437019e-05
1507.0219161854216	1.4125375446227555e-05
1523.1072222091636	1.678804018122562e-05
1539.6508013486578	1.9952623149688786e-05
1556.8222991789958	2.371373705661655e-05
1574.6806453658073	2.818382931264455e-05
1593.383744923215	3.349654391578279e-05
1611.9412537846256	3.981071705534977e-05
1631.3335792524956	4.731512589614803e-05
1651.5682103935997	5.623413251903491e-05
1672.6011743005852	6.683439175686148e-05
1694.1029224877093	7.943282347242821e-05
1715.573633562099	9.440608762859246e-05
1737.8433938118226	0.00011220184543019629
1760.8917860629108	0.0001333521432163324
1784.747132441585	0.00015848931924611142
1808.9620840954892	0.00018836490894898024
1833.4882287663281	0.00022387211385683424
1858.611096483935	0.0002660725059798809
1884.2280602036178	0.0003162277660168379
1910.2667470203398	0.00037583740428844437
1935.1481762368262	0.0004466835921509635
1959.9341417095382	0.0005308844442309889
1984.8350784522092	0.000630957344480193
2009.820339434784	0.0007498942093324559
2034.7279556711585	0.0008912509381337458
2058.0031960889633	0.0010592537251772895
2081.135792360396	0.0012589254117941673
2104.0738018620054	0.0014962356560944345
2126.742716313854	0.0017782794100389225
2148.5629658006874	0.0021134890398366475
2169.1958016600283	0.002511886431509582
2189.6743859483768	0.0029853826189179603
2209.894781134057	0.0035481338923357567
2229.70812738203	0.004216965034285822
2247.9621321577843	0.0050118723362727255
2265.2706075404585	0.005956621435290103
2281.9696496831534	0.00707945784384138
2298.0147648827997	0.008413951416451957
2313.4      	0.01        
2326.9413845015983	0.01188502227437019
2339.9791363784743	0.014125375446227554
2352.5794259975987	0.016788040181225587
2364.7699863996804	0.01995262314968883
2376.2998281862456	0.023713737056616554
2387.13281531814	0.02818382931264455
2397.986690195886	0.033496543915782793
2408.920995116392	0.03981071705534969
2420.0012093625724	0.04731512589614813
2430.973625243101	0.056234132519034905
2442.144790435744	0.06683439175686148
2453.8269074663403	0.07943282347242821
2466.105732976357	0.09440608762859228
2479.077800780999	0.11220184543019629
2492.3546300482085	0.1333521432163324
2506.5044825309724	0.1584893192461114
2521.5751225752315	0.18836490894898023
2537.5792363398714	0.22387211385683378
2554.4115288501985	0.26607250597988086
2571.4218208367142	0.3162277660168379
2588.9307967916934	0.3758374042884443
2606.7750816820085	0.4466835921509634
2624.7186018882867	0.5308844442309879
2641.817672245828	0.630957344480193
2657.473604213964	0.7498942093324559
2671.8555664910464	0.8912509381337458
2684.6859271529884	1.0592537251772898
2695.768731181307	1.2589254117941662
2703.756625025401	1.4962356560944328
2709.5474844901496	1.7782794100389228
2713.588922924761	2.1134890398366473
2716.1291450452836	2.511886431509582
2717.5737096848343	2.9853826189179573
2718.052970484198	3.548133892335753
2718.306994537043	4.216965034285823
2718.3674980372343	5.011872336272725
2718.2626066121475	5.956621435290109
2718.024885424734	7.079457843841373
2717.7931527337473	8.413951416451948
2717.5      	10.0        
