# T(K)	P(bar)
2863.1      	1e-08       
2851.712926669111	1.1885022274370215e-08
2838.390099484732	1.4125375446227554e-08
2821.993636731078	1.6788040181225588e-08
2798.3955683598224	1.9952623149688826e-08
2755.0592664723886	2.3713737056616554e-08
2733.4604636370896	2.818382931264461e-08
2717.1297759024974	3.3496543915782795e-08
2703.7851862907473	3.981071705534969e-08
2692.552750789683	4.731512589614813e-08
2685.107182870753	5.6234132519034905e-08
2680.420869702797	6.683439175686162e-08
2677.020119991303	7.94328234724282e-08
2674.368532569476	9.440608762859226e-08
2672.0426813876	1.1220184543019653e-07
2670.02836731273	1.333521432163324e-07
2668.1212795838514	1.584893192461114e-07
2666.230288172699	1.883649089489802e-07
2664.3316472236156	2.2387211385683422e-07
2662.496847566092	2.6607250597988136e-07
2660.7221634423327	3.162277660168379e-07
2659.0285542804177	3.7583740428844433e-07
2657.307436094728	4.466835921509635e-07
2655.434176732279	5.308844442309889e-07
2653.385440191744	6.309573444801942e-07
2651.0425913468357	7.498942093324558e-07
2648.0749160285673	8.912509381337459e-07
2644.635851466204	1.0592537251772896e-06
2640.7493546316687	1.2589254117941687e-06
2631.3655181740437	1.4962356560944327e-06
2630.3962074212573	1.7782794100389227e-06
2584.2081077122543	2.1134890398366474e-06
2208.8540019844936	2.511886431509582e-06
889.8059788922635	2.9853826189179636e-06
1094.399104358673	3.5481338923357534e-06
1150.9993986564511	4.216965034285822e-06
1137.7801256169996	5.011872336272725e-06
1142.7232231308753	5.95662143529011e-06
1146.6852429211058	7.079457843841388e-06
1151.7885380350558	8.413951416451948e-06
1157.4890809827116	1e-05       
1163.730837767293	1.188502227437019e-05
1170.541933035166	1.4125375446227555e-05
1177.8037459487973	1.678804018122562e-05
1185.2685010735806	1.9952623149688786e-05
1193.091326649809	2.371373705661655e-05
1201.3666853027532	2.818382931264455e-05
1210.2412837791942	3.349654391578279e-05
1219.4815371541704	3.981071705534977e-05
1229.503303417974	4.731512589614803e-05
1240.3390163995357	5.623413251903491e-05
1251.9821512677413	6.683439175686148e-05
1264.2461113448414	7.943282347242821e-05
1277.5566746946424	9.440608762859246e-05
1291.3650142309182	0.00011220184543019629
1305.8542859396596	0.0001333521432163324
1321.3106100183174	0.00015848931924611142
1337.2704645174815	0.00018836490894898024
1354.6330696815182	0.00022387211385683424
1373.173591445951	0.0002660725059798809
1392.9295673875047	0.0003162277660168379
1414.140465441608	0.00037583740428844437
1436.076429517202	0.0004466835921509635
1460.7787189384846	0.0005308844442309889
1487.3683828755306	0.000630957344480193
1515.4980930823447	0.0007498942093324559
1545.4513036045444	0.0008912509381337458
1576.7665695506525	0.0010592537251772895
1610.1993634224962	0.0012589254117941673
1646.2604665404463	0.0014962356560944345
1685.0933266555335	0.0017782794100389225
1724.6227641316802	0.0021134890398366475
1766.9476312831414	0.002511886431509582
1812.3307520357846	0.0029853826189179603
1863.2574324922102	0.0035481338923357567
1923.263550522931	0.004216965034285822
1991.131004176376	0.0050118723362727255
2079.1821913011477	0.005956621435290103
2172.447077219136	0.00707945784384138
2242.5249587228	0.008413951416451957
2241.8      	0.01        
2204.868951359278	0.01188502227437019
2177.374750527181	0.014125375446227554
2155.5600040947297	0.016788040181225587
2136.188780099815	0.01995262314968883
2117.9795816920678	0.023713737056616554
2105.2327311743984	0.02818382931264455
2095.7514808753854	0.033496543915782793
2089.9524139989667	0.03981071705534969
2088.133718279741	0.04731512589614813
2089.4660830652333	0.056234132519034905
2093.84421640223	0.06683439175686148
2100.4705108822395	0.07943282347242821
2109.15249080685	0.09440608762859228
2119.692136650424	0.11220184543019629
2129.958522072161	0.1333521432163324
2139.005367991389	0.1584893192461114
2147.215085302007	0.18836490894898023
2154.7292730626036	0.22387211385683378
2161.3505066093194	0.26607250597988086
2166.806459088552	0.3162277660168379
2171.200040012358	0.3758374042884443
2174.9249048622596	0.4466835921509634
2178.429406817088	0.5308844442309879
2181.738904305644	0.630957344480193
2184.390144695304	0.7498942093324559
2187.2907757873795	0.8912509381337458
2190.806000473295	1.0592537251772898
2194.927304729008	1.2589254117941662
2195.3926189335184	1.4962356560944328
2194.7224651761826	1.7782794100389228
2193.775606884101	2.1134890398366473
2193.1914291792455	2.511886431509582
2193.592697134676	2.9853826189179573
2194.9589114525947	3.548133892335753
2196.790928981557	4.216965034285823
2198.942556920203	5.011872336272725
2201.2739338785254	5.956621435290109
2203.6511457526635	7.079457843841373
2206.0374217512754	8.413951416451948
2209.3      	10.0        
