# T(K)	P(bar)
2921.3      	1e-08       
2915.8372823885597	1.1885022274370215e-08
2903.7425911689716	1.4125375446227554e-08
2882.0841697333076	1.6788040181225588e-08
2853.4653995701315	1.9952623149688826e-08
2836.2899111156626	2.3713737056616554e-08
2803.4052253770824	2.818382931264461e-08
2769.8461123052152	3.3496543915782795e-08
2743.5099119193055	3.981071705534969e-08
2730.0403746983297	4.731512589614813e-08
2720.478698002441	5.6234132519034905e-08
2713.699425966486	6.683439175686162e-08
2708.643603415899	7.94328234724282e-08
2704.916109396591	9.440608762859226e-08
2702.022840329462	1.1220184543019653e-07
2699.3112636902138	1.333521432163324e-07
2696.704259427796	1.584893192461114e-07
2694.0679082446572	1.883649089489802e-07
2691.4195398568904	2.2387211385683422e-07
2689.0263229122943	2.6607250597988136e-07
2686.711517533478	3.162277660168379e-07
2684.4714057072238	3.7583740428844433e-07
2682.16654430159	4.466835921509635e-07
2679.7035048167727	5.308844442309889e-07
2677.4183755984836	6.309573444801942e-07
2674.843487283626	7.498942093324558e-07
2671.953993607305	8.912509381337459e-07
2668.7358514662037	1.0592537251772896e-06
2665.090546404574	1.2589254117941687e-06
2659.8169854201237	1.4962356560944327e-06
2652.379721409461	1.7782794100389227e-06
2641.9498468385755	2.1134890398366474e-06
2627.4102552018803	2.511886431509582e-06
2607.2666038392526	2.9853826189179636e-06
1190.5367909930433	3.5481338923357534e-06
941.5792379744133	4.216965034285822e-06
1110.694148159722	5.011872336272725e-06
1081.9235074299354	5.95662143529011e-06
1085.251604053729	7.079457843841388e-06
1087.1858290412688	8.413951416451948e-06
1089.9306642402184	1e-05       
1093.7668979555986	1.188502227437019e-05
1098.555565379795	1.4125375446227555e-05
1103.7091100281787	1.678804018122562e-05
1109.3921400053457	1.9952623149688786e-05
1115.6516807704309	2.371373705661655e-05
1122.3515295521277	2.818382931264455e-05
1129.2094949288755	3.349654391578279e-05
1136.3706912944822	3.981071705534977e-05
1143.9524775634804	4.731512589614803e-05
1151.939289621887	5.623413251903491e-05
1160.359746376539	6.683439175686148e-05
1169.2789900689759	7.943282347242821e-05
1178.562400218688	9.440608762859246e-05
1188.5740554970853	0.00011220184543019629
1199.2789287369376	0.0001333521432163324
1210.6735662207925	0.00015848931924611142
1222.7810420477447	0.00018836490894898024
1235.499515645316	0.00022387211385683424
1248.7841881839652	0.0002660725059798809
1263.0852223479123	0.0003162277660168379
1279.1812558852637	0.00037583740428844437
1295.0712651979732	0.0004466835921509635
1311.5985549294048	0.0005308844442309889
1329.1705038245623	0.000630957344480193
1347.8570497834487	0.0007498942093324559
1367.3186277430596	0.0008912509381337458
1388.400261339288	0.0010592537251772895
1411.2009302737388	0.0012589254117941673
1435.9735993598094	0.0014962356560944345
1462.9561284585393	0.0017782794100389225
1491.8126178161265	0.0021134890398366475
1521.9554355415455	0.002511886431509582
1554.3985937438185	0.0029853826189179603
1589.2265680803805	0.0035481338923357567
1626.4448313870794	0.004216965034285822
1664.747037989196	0.0050118723362727255
1706.7214389882454	0.005956621435290103
1750.7562035154374	0.00707945784384138
1794.291127030399	0.008413951416451957
1833.6      	0.01        
1900.9222240846495	0.01188502227437019
1984.2277088072017	0.014125375446227554
2080.694182070371	0.016788040181225587
2185.7076025792117	0.01995262314968883
2288.7605333060264	0.023713737056616554
2325.37235168105	0.02818382931264455
2320.0925488495946	0.033496543915782793
2288.405010129358	0.03981071705534969
2248.9985725440292	0.04731512589614813
2210.1248705672997	0.056234132519034905
2179.964873796674	0.06683439175686148
2157.98984909167	0.07943282347242821
2139.48047934899	0.09440608762859228
2115.337574832181	0.11220184543019629
2102.6010816397998	0.1333521432163324
2093.3532042261663	0.1584893192461114
2088.3114781367203	0.18836490894898023
2087.019923309482	0.22387211385683378
2086.6210538187156	0.26607250597988086
2088.496684804319	0.3162277660168379
2092.77148573194	0.3758374042884443
2100.1144916384937	0.4466835921509634
2110.365532789238	0.5308844442309879
2119.3484545438914	0.630957344480193
2129.0287386758673	0.7498942093324559
2139.2990988877204	0.8912509381337458
2149.9166307953383	1.0592537251772898
2160.314004383594	1.2589254117941662
2165.665117735463	1.4962356560944328
2167.31867259744	1.7782794100389228
2166.8283761529106	2.1134890398366473
2165.5268566566037	2.511886431509582
2165.2058422922587	2.9853826189179573
2165.7284655648978	3.548133892335753
2167.290928981557	4.216965034285823
2169.8325804733904	5.011872336272725
2173.235687593493	5.956621435290109
2177.2769477795277	7.079457843841373
2182.319588946305	8.413951416451948
2190.2      	10.0        
