# T(K)	P(bar)
2502.8      	1e-08       
2432.015490105282	1.1885022274370215e-08
2399.9045845163632	1.4125375446227554e-08
2387.435838456152	1.6788040181225588e-08
2380.0293832497478	1.9952623149688826e-08
2376.6897049391564	2.3713737056616554e-08
2374.6441401217608	2.818382931264461e-08
2373.027823017928	3.3496543915782795e-08
2371.629297703053	3.981071705534969e-08
2370.2741475014204	4.731512589614813e-08
2369.020157115074	5.6234132519034905e-08
2367.779885193297	6.683439175686162e-08
2366.43891885267	7.94328234724282e-08
2364.964505220328	9.440608762859226e-08
2363.351499635662	1.1220184543019653e-07
2361.6470800338484	1.333521432163324e-07
2359.8212795838513	1.584893192461114e-07
2357.857812187091	1.883649089489802e-07
2355.735555194994	2.2387211385683422e-07
2353.422112148551	2.6607250597988136e-07
2350.965618702376	3.162277660168379e-07
2348.365278358772	3.7583740428844433e-07
2345.585875456736	4.466835921509635e-07
2342.580817154748	5.308844442309889e-07
2339.350117225443	6.309573444801942e-07
2335.913439051858	7.498942093324558e-07
2332.161530265776	8.912509381337459e-07
2328.1423699146044	1.0592537251772896e-06
2323.9633590152625	1.2589254117941687e-06
2319.9306359095062	1.4962356560944327e-06
2315.889860704731	1.7782794100389227e-06
2311.6394532281497	2.1134890398366474e-06
2307.121135684904	2.511886431509582e-06
2302.3861738108208	2.9853826189179636e-06
2297.4683148352196	3.5481338923357534e-06
2292.0481966664574	4.216965034285822e-06
2285.969835127688	5.011872336272725e-06
2279.1158760513367	5.95662143529011e-06
2271.588038449899	7.079457843841388e-06
2263.2845493261607	8.413951416451948e-06
2253.9496815286625	1e-05       
2243.342918722302	1.188502227437019e-05
2231.2265740217395	1.4125375446227555e-05
2217.952292351661	1.678804018122562e-05
2203.7009309200043	1.9952623149688786e-05
2188.6049867645847	2.371373705661655e-05
2172.7139041547935	2.818382931264455e-05
2155.955108116063	3.349654391578279e-05
2139.938668932771	3.981071705534977e-05
2124.9680724564914	4.731512589614803e-05
2111.7609836004644	5.623413251903491e-05
2101.1551902175956	6.683439175686148e-05
2094.465757448268	7.943282347242821e-05
2090.8500362841132	9.440608762859246e-05
2089.002358591174	0.00011220184543019629
2088.602500008217	0.0001333521432163324
2089.2873044846533	0.00015848931924611142
2090.9383239156014	0.00018836490894898024
2093.802292926582	0.00022387211385683424
2097.767250597988	0.0002660725059798809
2102.7506800452484	0.0003162277660168379
2108.5658559552253	0.00037583740428844437
2114.7668351992093	0.0004466835921509635
2121.9254012708043	0.0005308844442309889
2129.3756761020873	0.000630957344480193
2136.6198976626592	0.0007498942093324559
2143.2672679122384	0.0008912509381337458
2150.0280836285724	0.0010592537251772895
2156.5773298420154	0.0012589254117941673
2162.281009528642	0.0014962356560944345
2166.598532865887	0.0017782794100389225
2169.3655934892176	0.0021134890398366475
2171.5266415218825	0.002511886431509582
2171.7096287239315	0.0029853826189179603
2169.503979990431	0.0035481338923357567
2164.9192352356645	0.004216965034285822
2158.210498437738	0.0050118723362727255
2149.1462457156485	0.005956621435290103
2137.8041322031513	0.00707945784384138
2124.4408273636004	0.008413951416451957
2109.7      	0.01        
2094.850640859043	0.01188502227437019
2079.285581190059	0.014125375446227554
2063.2725748213475	0.016788040181225587
2047.1371218321565	0.01995262314968883
2031.5519563827306	0.023713737056616554
2017.4173400864186	0.02818382931264455
2004.3926785452602	0.033496543915782793
1992.617446735651	0.03981071705534969
1982.0875693852972	0.04731512589614813
1972.996139084288	0.056234132519034905
1965.4068255106213	0.06683439175686148
1958.9133931247181	0.07943282347242821
1953.4588398779356	0.09440608762859228
1948.9055498047503	0.11220184543019629
1945.5863424879478	0.1333521432163324
1943.037675711361	0.1584893192461114
1941.1477161295245	0.18836490894898023
1939.7918006046525	0.22387211385683378
1938.754739928661	0.26607250597988086
1938.1164046755941	0.3162277660168379
1937.64489387629	0.3758374042884443
1937.279554103431	0.4466835921509634
1936.9591041126582	0.5308844442309879
1936.6439138756527	0.630957344480193
1936.2681598946508	0.7498942093324559
1935.8761530265774	0.8912509381337458
1935.4790740302503	1.0592537251772898
1935.0817968473277	1.2589254117941662
1934.7715873776544	1.4962356560944328
1934.5205688868114	1.7782794100389228
1934.322837615291	2.1134890398366473
1934.2      	2.511886431509582
1934.2      	2.9853826189179573
1934.2754950806998	3.548133892335753
1934.406994537043	4.216965034285823
1934.6300078510626	5.011872336272725
1934.9623223130877	5.956621435290109
1935.3585242921106	7.079457843841373
1935.813694532505	8.413951416451948
1936.2      	10.0        
