# T(K)	P(bar)
1166.4      	1e-08       
1178.1717717542303	1.1885022274370215e-08
1186.2990698523893	1.4125375446227554e-08
1192.0170602718383	1.6788040181225588e-08
1196.4657195419609	1.9952623149688826e-08
1200.3620109043175	2.3713737056616554e-08
1204.0712509662194	2.818382931264461e-08
1208.0680766694345	3.3496543915782795e-08
1212.3505487428838	3.981071705534969e-08
1216.871946869674	4.731512589614813e-08
1221.574410818472	5.6234132519034905e-08
1226.4804592268113	6.683439175686162e-08
1231.6329131595053	7.94328234724282e-08
1237.0024569898674	9.440608762859226e-08
1242.5565239030916	1.1220184543019653e-07
1248.057150799852	1.333521432163324e-07
1253.6936079324519	1.584893192461114e-07
1259.4816114675107	1.883649089489802e-07
1265.4011503577742	2.2387211385683422e-07
1271.384192719265	2.6607250597988136e-07
1277.3171049974073	3.162277660168379e-07
1283.4816979793604	3.7583740428844433e-07
1289.8992523538077	4.466835921509635e-07
1296.5997095215173	5.308844442309889e-07
1303.5338947356356	6.309573444801942e-07
1310.8713300227028	7.498942093324558e-07
1318.7112476525017	8.912509381337459e-07
1327.3989640497894	1.0592537251772896e-06
1337.4052548263478	1.2589254117941687e-06
1347.7197196929933	1.4962356560944327e-06
1358.5332623198653	1.7782794100389227e-06
1369.9485976608162	2.1134890398366474e-06
1381.9525903924566	2.511886431509582e-06
1394.4721506018986	2.9853826189179636e-06
1407.1566883154496	3.5481338923357534e-06
1420.4550274542064	4.216965034285822e-06
1434.2528474095143	5.011872336272725e-06
1448.4436032711517	5.95662143529011e-06
1462.7068745159809	7.079457843841388e-06
1476.8176832414	8.413951416451948e-06
1491.2365787079164	1e-05       
1506.0459425688769	1.188502227437019e-05
1521.31147609335	1.4125375446227555e-05
1536.147437959908	1.678804018122562e-05
1551.199564013899	1.9952623149688786e-05
1566.7182875486449	2.371373705661655e-05
1582.7242771551314	2.818382931264455e-05
1599.25077870807	3.349654391578279e-05
1615.6522284486525	3.981071705534977e-05
1632.5266677660477	4.731512589614803e-05
1649.8684836159507	5.623413251903491e-05
1667.6491310812307	6.683439175686148e-05
1685.6468906748976	7.943282347242821e-05
1703.2941293395006	9.440608762859246e-05
1721.5038109228412	0.00011220184543019629
1740.1560717067673	0.0001333521432163324
1759.1317034205806	0.00015848931924611142
1777.921876944227	0.00018836490894898024
1796.6438722058222	0.00022387211385683424
1815.7606168899504	0.0002660725059798809
1835.2627495996715	0.0003162277660168379
1855.1374462589583	0.00037583740428844437
1874.6705308775086	0.0004466835921509635
1894.5010700554772	0.0005308844442309889
1914.8916896639453	0.000630957344480193
1935.9702658060964	0.0007498942093324559
1957.8345077113386	0.0008912509381337458
1979.59372348734	0.0010592537251772895
2002.340117478494	0.0012589254117941673
2026.0924548297035	0.0014962356560944345
2050.8209557529194	0.0017782794100389225
2075.9616779877488	0.0021134890398366475
2101.190311821388	0.002511886431509582
2127.402390839146	0.0029853826189179603
2154.5583815152654	0.0035481338923357567
2182.5901425128313	0.004216965034285822
2210.3611925135515	0.0050118723362727255
2238.242812338932	0.005956621435290103
2266.5068499329363	0.00707945784384138
2294.965507872399	0.008413951416451957
2323.4      	0.01        
2350.1750102645233	0.01188502227437019
2376.8152827358617	0.014125375446227554
2403.2315047221578	0.016788040181225587
2429.293211739993	0.01995262314968883
2454.420315219679	0.023713737056616554
2477.740552934	0.02818382931264455
2500.3641060524624	0.033496543915782793
2522.0989763062466	0.03981071705534969
2542.7405927917284	0.04731512589614813
2561.0802021920404	0.056234132519034905
2577.4339781362983	0.06683439175686148
2592.2571177575214	0.07943282347242821
2605.4573371526203	0.09440608762859228
2617.0613854240637	0.11220184543019629
2626.2470986961443	0.1333521432163324
2634.0882235562776	0.1584893192461114
2640.7453734747064	0.18836490894898023
2646.2968589338047	0.22387211385683378
2650.7641972303845	0.26607250597988086
2654.063875453131	0.3162277660168379
2656.679615517518	0.3758374042884443
2658.672118008703	0.4466835921509634
2660.1124636901895	0.5308844442309879
2660.9792368419544	0.630957344480193
2661.498208126419	0.7498942093324559
2661.789538789369	0.8912509381337458
2661.92418519395	1.0592537251772898
2662.0      	1.2589254117941662
2662.0      	1.4962356560944328
2662.0      	1.7782794100389228
2662.0      	2.1134890398366473
2661.981714164151	2.511886431509582
2661.901460573065	2.9853826189179573
2661.9      	3.548133892335753
2661.8465027314787	4.216965034285823
2661.7674980372344	5.011872336272725
2661.6875355373822	5.956621435290109
2661.608295141578	7.079457843841373
2661.531050911249	8.413951416451948
2661.5      	10.0        
