# T(K)	P(bar)
1076.9      	1e-08       
1077.5924571620135	1.1885022274370215e-08
1078.4022591473367	1.4125375446227554e-08
1079.3708569088726	1.6788040181225588e-08
1080.5445500358223	1.9952623149688826e-08
1081.9758407403615	2.3713737056616554e-08
1083.5046879025913	2.818382931264461e-08
1085.2629026427628	3.3496543915782795e-08
1087.3306511122591	3.981071705534969e-08
1089.767436559482	4.731512589614813e-08
1092.4321661304675	5.6234132519034905e-08
1095.514044192176	6.683439175686162e-08
1098.9449851542872	7.94328234724282e-08
1102.75406116613	9.440608762859226e-08
1107.0322737209224	1.1220184543019653e-07
1111.6806908167764	1.333521432163324e-07
1116.6914811444087	1.584893192461114e-07
1122.1453734747065	1.883649089489802e-07
1128.0972423863961	2.2387211385683422e-07
1134.5589281368061	2.6607250597988136e-07
1141.392497984016	3.162277660168379e-07
1148.7490587999746	3.7583740428844433e-07
1156.721927733222	4.466835921509635e-07
1165.3859807329093	5.308844442309889e-07
1174.526497606065	6.309573444801942e-07
1184.0960026337275	7.498942093324558e-07
1194.1647907036672	8.912509381337459e-07
1204.810112346938	1.0592537251772896e-06
1216.1735166488684	1.2589254117941687e-06
1227.6512670267896	1.4962356560944327e-06
1239.4509867726197	1.7782794100389227e-06
1251.6958283920064	2.1134890398366474e-06
1264.3988770792494	2.511886431509582e-06
1277.5604660173806	2.9853826189179636e-06
1290.7096587996477	3.5481338923357534e-06
1304.2620219912494	4.216965034285822e-06
1318.3803611488736	5.011872336272725e-06
1333.2430346730318	5.95662143529011e-06
1348.774152250735	7.079457843841388e-06
1364.6035122826686	8.413951416451948e-06
1381.0588717015469	1e-05       
1398.0364399730388	1.188502227437019e-05
1415.4668688062657	1.4125375446227555e-05
1433.1919390363112	1.678804018122562e-05
1451.8025336173203	1.9952623149688786e-05
1471.4604995000086	2.371373705661655e-05
1491.998832266558	2.818382931264455e-05
1513.115533773534	3.349654391578279e-05
1533.7520996443138	3.981071705534977e-05
1555.247891315263	4.731512589614803e-05
1577.6480191379537	5.623413251903491e-05
1600.6938234335764	6.683439175686148e-05
1623.2308409778582	7.943282347242821e-05
1645.7043046599747	9.440608762859246e-05
1669.3394628265326	0.00011220184543019629
1693.6232146437299	0.0001333521432163324
1718.029293919237	0.00015848931924611142
1742.0870056273368	0.00018836490894898024
1766.653286089493	0.00022387211385683424
1791.5065074299364	0.0002660725059798809
1816.200759633608	0.0003162277660168379
1840.3969598320934	0.00037583740428844437
1863.650631997034	0.0004466835921509635
1885.8660183030825	0.0005308844442309889
1906.693723882941	0.000630957344480193
1926.0346561736344	0.0007498942093324559
1944.4550797568054	0.0008912509381337458
1960.4558330808457	0.0010592537251772895
1975.084935510716	0.0012589254117941673
1988.3806045242495	0.0014962356560944345
2000.1639185175284	0.0017782794100389225
2008.939453637233	0.0021134890398366475
2014.0592033819612	0.002511886431509582
2017.9330395729914	0.0029853826189179603
2021.088376369726	0.0035481338923357567
2023.7950348952756	0.004216965034285822
2025.1211805413775	0.0050118723362727255
2026.6246006854963	0.005956621435290103
2029.1136338359786	0.00707945784384138
2032.769696694	0.008413951416451957
2037.2      	0.01        
2041.0469842334087	0.01188502227437019
2045.9230565471723	0.014125375446227554
2051.421549817059	0.016788040181225587
2056.9064778812644	0.01995262314968883
2061.0413176943775	0.023713737056616554
2063.647500644146	0.02818382931264455
2065.2783598749447	0.033496543915782793
2065.5569860734618	0.03981071705534969
2063.9988451607774	0.04731512589614813
2060.0017508042993	0.056234132519034905
2055.283297948608	0.06683439175686148
2050.336215984346	0.07943282347242821
2045.3717409220012	0.09440608762859228
2040.494567223907	0.11220184543019629
2036.7894055679417	0.1333521432163324
2034.4816048745276	0.1584893192461114
2033.4637620071958	0.18836490894898023
2033.6562454096586	0.22387211385683378
2034.93262778011	0.26607250597988086
2037.9909260375805	0.3162277660168379
2042.3143371587464	0.3758374042884443
2047.6884720348119	0.4466835921509634
2053.9099334933526	0.5308844442309879
2060.922916266722	0.630957344480193
2068.4040660648425	0.7498942093324559
2075.9978618897103	0.8912509381337458
2083.525037843392	1.0592537251772898
2090.9050201469545	1.2589254117941662
2097.807180847191	1.4962356560944328
2104.9025541377846	1.7782794100389228
2112.458119235447	2.1134890398366473
2120.648013615097	2.511886431509582
2129.636415816748	2.9853826189179573
2138.7839146032634	3.548133892335753
2148.0661749540495	4.216965034285823
2157.272721792515	5.011872336272725
2166.1838396496037	5.956621435290109
2174.3456004174777	7.079457843841373
2181.5433161650753	8.413951416451948
2190.6      	10.0        
