# T(K)	P(bar)
2539.9      	1e-08       
2540.0538793693363	1.1885022274370215e-08
2540.319003326304	1.4125375446227554e-08
2540.66816318174	1.6788040181225588e-08
2541.0815166786074	1.9952623149688826e-08
2541.5586135801204	2.3713737056616554e-08
2542.091640765907	2.818382931264461e-08
2542.736088491036	3.3496543915782795e-08
2543.476883704086	3.981071705534969e-08
2544.3022551550957	4.731512589614813e-08
2545.321122344002	5.6234132519034905e-08
2546.5201148067026	6.683439175686162e-08
2547.86108114733	7.94328234724282e-08
2549.4008189966225	9.440608762859226e-08
2551.2573186123996	1.1220184543019653e-07
2553.27163268727	1.333521432163324e-07
2555.580847204192	1.584893192461114e-07
2558.204567740951	1.883649089489802e-07
2561.15662886225	2.2387211385683422e-07
2564.4273586865315	2.6607250597988136e-07
2567.955673115334	3.162277660168379e-07
2571.8020824618425	3.7583740428844433e-07
2576.016354026109	4.466835921509635e-07
2580.623662281961	5.308844442309889e-07
2585.4303133962926	6.309573444801942e-07
2590.480289390608	7.498942093324558e-07
2595.8786270225983	8.912509381337459e-07
2603.742186613836	1.0592537251772896e-06
2616.755313496196	1.2589254117941687e-06
2627.922854404444	1.4962356560944327e-06
2637.9164860117967	1.7782794100389227e-06
2646.912444004865	2.1134890398366474e-06
2654.9274393905685	2.511886431509582e-06
2662.070008997237	2.9853826189179636e-06
2667.7866359717773	3.5481338923357534e-06
2672.756338842764	4.216965034285822e-06
2676.8000785106246	5.011872336272725e-06
2679.8739338785253	5.95662143529011e-06
2682.2511457526634	7.079457843841388e-06
2683.672134508764	8.413951416451948e-06
2684.01110100091	1e-05       
2683.109502595838	1.188502227437019e-05
2680.896289746803	1.4125375446227555e-05
2677.4605933145476	1.678804018122562e-05
2672.6083549285577	1.9952623149688786e-05
2665.7443075992182	2.371373705661655e-05
2656.6769464865706	2.818382931264455e-05
2645.596315884995	3.349654391578279e-05
2632.2749506027376	3.981071705534977e-05
2615.6003046505	4.731512589614803e-05
2593.0074385094845	5.623413251903491e-05
2562.8349928841662	6.683439175686148e-05
2525.406023817691	7.943282347242821e-05
2482.924322960254	9.440608762859246e-05
2451.212699215377	0.00011220184543019629
2431.902142723327	0.0001333521432163324
2423.0953783672558	0.00015848931924611142
2416.8844005079754	0.00018836490894898024
2410.3050702078485	0.00022387211385683424
2402.4265751360226	0.0002660725059798809
2392.8215660212427	0.0003162277660168379
2381.231732895707	0.00037583740428844437
2367.9771397616905	0.0004466835921509635
2353.507795388296	0.0005308844442309889
2338.125427737446	0.000630957344480193
2322.1443454475034	0.0007498942093324559
2305.9664082135882	0.0008912509381337458
2289.9699841506476	0.0010592537251772895
2273.958837954011	0.0012589254117941673
2258.138318446376	0.0014962356560944345
2242.6137625642755	0.0017782794100389225
2227.4344585734348	0.0021134890398366475
2211.7987085013315	0.002511886431509582
2195.120579369401	0.0029853826189179603
2177.2336585038724	0.0035481338923357567
2157.912983403334	0.004216965034285822
2137.162704470212	0.0050118723362727255
2114.675909854656	0.005956621435290103
2090.8458956010854	0.00707945784384138
2066.2291475444003	0.008413951416451957
2041.5      	0.01        
2020.7262851395938	0.01188502227437019
2003.4403320216352	0.014125375446227554
1990.0959204564947	0.016788040181225587
1980.9576609877229	0.01995262314968883
1976.0276596720882	0.023713737056616554
1974.5464840730565	0.02818382931264455
1974.778359874945	0.033496543915782793
1976.4137162234852	0.03981071705534969
1979.1696917145778	0.04731512589614813
1982.8532884744695	0.056234132519034905
1986.6878587709461	0.06683439175686148
1990.5718320121755	0.07943282347242821
1994.401637993245	0.09440608762859228
1998.0922536790813	0.11220184543019629
2001.334270128051	0.1333521432163324
2004.1489319246111	0.1584893192461114
2006.5784258057133	0.18836490894898023
2008.7324141287986	0.22387211385683378
2010.8863093789353	0.26607250597988086
2012.677836557667	0.3162277660168379
2014.473488169066	0.3758374042884443
2016.3527868535564	0.4466835921509634
2018.365823267721	0.5308844442309879
2020.414559808256	0.630957344480193
2022.160096463536	0.7498942093324559
2023.8401572883743	0.8912509381337458
2025.4837038789983	1.0592537251772898
2027.0637110343523	1.2589254117941662
2028.14944417821	1.4962356560944328
2029.1775348238175	1.7782794100389228
2030.1243931158992	2.1134890398366473
2030.9828583584908	2.511886431509582
2031.7853942693525	2.9853826189179573
2032.4794557262974	3.548133892335753
2033.07448087965	4.216965034285823
2033.5625098138282	5.011872336272725
2033.924928925235	5.956621435290109
2034.0834097168442	7.079457843841373
2034.1      	8.413951416451948
2033.9      	10.0        
