# T(K)	P(bar)
1049.0      	1e-08       
1049.8463365313498	1.1885022274370215e-08
1050.8665116420648	1.4125375446227554e-08
1052.0381221815687	1.6788040181225588e-08
1053.3445500358223	1.9952623149688826e-08
1054.7758407403614	2.3713737056616554e-08
1056.374922297721	2.818382931264461e-08
1058.114448365981	3.3496543915782795e-08
1059.992209260216	3.981071705534969e-08
1062.0202418725144	4.731512589614813e-08
1064.21472504862	5.6234132519034905e-08
1066.4489580871489	6.683439175686162e-08
1068.8953154367712	7.94328234724282e-08
1071.5621158644256	9.440608762859226e-08
1074.388182480615	1.1220184543019653e-07
1077.487127211184	1.333521432163324e-07
1080.8851007802787	1.584893192461114e-07
1084.7206136186226	1.883649089489802e-07
1089.076935624323	2.2387211385683422e-07
1093.9431434116689	2.6607250597988136e-07
1099.5253073352042	3.162277660168379e-07
1105.8368041030703	3.7583740428844433e-07
1112.9208129917993	4.466835921509635e-07
1120.8450848455675	5.308844442309889e-07
1129.670411481718	6.309573444801942e-07
1139.3287386758673	7.498942093324558e-07
1150.002023439881	8.912509381337459e-07
1161.9389273896356	1.0592537251772896e-06
1175.4327942347493	1.2589254117941687e-06
1189.6248774723142	1.4962356560944327e-06
1205.280746810015	1.7782794100389227e-06
1222.2807682797559	2.1134890398366474e-06
1240.4520289320815	2.511886431509582e-06
1259.552383610589	2.9853826189179636e-06
1278.6982750942238	3.5481338923357534e-06
1299.030273426699	4.216965034285822e-06
1320.4355456488418	5.011872336272725e-06
1342.6526561450503	5.95662143529011e-06
1364.6022457829263	7.079457843841388e-06
1385.929948495226	8.413951416451948e-06
1407.7229299363057	1e-05       
1429.7767803361696	1.188502227437019e-05
1451.73606653069	1.4125375446227555e-05
1472.5064131438714	1.678804018122562e-05
1493.204018419031	1.9952623149688786e-05
1514.5823282548731	2.371373705661655e-05
1536.5461070268586	2.818382931264455e-05
1558.615533773534	3.349654391578279e-05
1579.2520996443138	3.981071705534977e-05
1600.0748637318109	4.731512589614803e-05
1621.0731899019231	5.623413251903491e-05
1642.1529826598228	6.683439175686148e-05
1662.8583698029793	7.943282347242821e-05
1682.5554715352519	9.440608762859246e-05
1702.3504695853446	0.00011220184543019629
1722.0007145697791	0.0001333521432163324
1741.233591547667	0.00015848931924611142
1759.1589453693882	0.00018836490894898024
1775.85720983405	0.00022387211385683424
1791.7849807899606	0.0002660725059798809
1806.8120695544233	0.0003162277660168379
1820.8317119104497	0.00037583740428844437
1833.233670398418	0.0004466835921509635
1844.9138956959187	0.0005308844442309889
1856.0827091385365	0.000630957344480193
1866.858150499651	0.0007498942093324559
1877.4298718604275	0.0008912509381337458
1887.5179426743516	0.0010592537251772895
1897.8376203535126	0.0012589254117941673
1908.511917806186	0.0014962356560944345
1919.6738380367267	0.0017782794100389225
1931.295492654714	0.0021134890398366475
1943.2539287930992	0.002511886431509582
1956.032158291966	0.0029853826189179603
1969.694174940582	0.0035481338923357567
1984.2901061516914	0.004216965034285822
1999.5017767981533	0.0050118723362727255
2015.4970771634355	0.005956621435290103
2032.4869847772836	0.00707945784384138
2050.5094202995997	0.008413951416451957
2069.6      	0.01        
2088.604102113038	0.01188502227437019
2108.3709637150487	0.014125375446227554
2128.912648632231	0.016788040181225587
2150.1954227635383	0.01995262314968883
2171.823815632129	0.023713737056616554
2193.084693055761	0.02818382931264455
2214.818743222117	0.033496543915782793
2236.897366973602	0.03981071705534969
2259.1630898193384	0.04731512589614813
2280.7160495846624	0.056234132519034905
2301.459408661434	0.06683439175686148
2321.8819829205054	0.07943282347242821
2341.8259373560604	0.09440608762859228
2361.092019621766	0.11220184543019629
2378.382774016272	0.1333521432163324
2394.693591547667	0.1584893192461114
2410.0677906759724	0.18836490894898023
2424.410500110896	0.22387211385683378
2437.4136455098687	0.26607250597988086
2448.3129181771037	0.3162277660168379
2458.0184620700725	0.3758374042884443
2466.4100326728035	0.4466835921509634
2473.405454056644	0.5308844442309879
2478.842485644987	0.630957344480193
2482.6529289692116	0.7498942093324559
2485.5430818405343	0.8912509381337458
2487.635333491098	1.0592537251772898
2489.040957093512	1.2589254117941662
2489.738928400278	1.4962356560944328
2490.1392414842517	1.7782794100389228
2490.377162384709	2.1134890398366473
2490.5      	2.511886431509582
2490.5      	2.9853826189179573
2490.5      	3.548133892335753
2490.5      	4.216965034285823
2490.5      	5.011872336272725
2490.4875355373824	5.956621435290109
2490.408295141578	7.079457843841373
2490.4      	8.413951416451948
2490.4      	10.0        
