# T(K)	P(bar)
1348.9      	1e-08       
1349.438577792677	1.1885022274370215e-08
1349.9832558210323	1.4125375446227554e-08
1350.6363263634803	1.6788040181225588e-08
1351.463033357215	1.9952623149688826e-08
1352.417227160241	2.3713737056616554e-08
1353.483281531814	2.818382931264461e-08
1354.772176982072	3.3496543915782795e-08
1356.30914414899	3.981071705534969e-08
1358.1123760913533	4.731512589614813e-08
1360.2284848683123	5.6234132519034905e-08
1362.6402296134056	6.683439175686162e-08
1365.4912914385106	7.94328234724282e-08
1368.8234127322285	9.440608762859226e-08
1372.625660034876	1.1220184543019653e-07
1377.0416562759376	1.333521432163324e-07
1382.048927828415	1.584893192461114e-07
1387.7265634387275	1.883649089489802e-07
1394.237472457951	2.2387211385683422e-07
1401.8957666806589	2.6607250597988136e-07
1412.2940699304518	3.162277660168379e-07
1423.5001200370748	3.7583740428844433e-07
1435.4877243886194	4.466835921509635e-07
1448.3176272683513	5.308844442309889e-07
1461.555617222577	6.309573444801942e-07
1475.1471397293583	7.498942093324558e-07
1489.4271074113137	8.912509381337459e-07
1505.2142242205805	1.0592537251772896e-06
1523.5557828549827	1.2589254117941687e-06
1541.5479320960485	1.4962356560944327e-06
1559.994678684027	1.7782794100389227e-06
1579.2452980886176	2.1134890398366474e-06
1599.4457465000066	2.511886431509582e-06
1620.7129481378406	2.9853826189179636e-06
1641.9366422731155	3.5481338923357534e-06
1664.1072133341704	4.216965034285822e-06
1687.0880790158571	5.011872336272725e-06
1710.6271586216953	5.95662143529011e-06
1733.6861138008358	7.079457843841388e-06
1756.7847266252454	8.413951416451948e-06
1780.6924476797087	1e-05       
1805.1531808876061	1.188502227437019e-05
1829.8880943241682	1.4125375446227555e-05
1854.6407254383732	1.678804018122562e-05
1880.2331016237351	1.9952623149688786e-05
1905.9314429533183	2.371373705661655e-05
1931.5970247581351	2.818382931264455e-05
1957.8003040410506	3.349654391578279e-05
1983.9810219368162	3.981071705534977e-05
2010.0204298088433	4.731512589614803e-05
2035.9027937295139	5.623413251903491e-05
2061.79032414516	6.683439175686148e-05
2088.0702385960894	7.943282347242821e-05
2112.45087660237	9.440608762859246e-05
2136.2912317699133	0.00011220184543019629
2160.12321464373	0.0001333521432163324
2184.5203746580632	0.00015848931924611142
2208.4994663932607	0.00018836490894898024
2230.906394425063	0.00022387211385683424
2252.735460383945	0.0002660725059798809
2274.0378629405463	0.0003162277660168379
2294.7410734751893	0.00037583740428844437
2312.0263031177956	0.0004466835921509635
2326.378843943524	0.0005308844442309889
2338.657454861162	0.000630957344480193
2348.9593984732287	0.0007498942093324559
2356.7280118974354	0.0008912509381337458
2359.1513002866886	0.0010592537251772895
2357.5005222837476	0.0012589254117941673
2351.8942098487373	0.0014962356560944345
2342.3162424440748	0.0017782794100389225
2327.848468327805	0.0021134890398366475
2304.518568685906	0.002511886431509582
2273.6269359731614	0.0029853826189179603
2235.3621246303637	0.0035481338923357567
2189.545790864425	0.004216965034285822
2130.1812710595145	0.0050118723362727255
2067.9812121688533	0.005956621435290103
2015.0596510754322	0.00707945784384138
1977.8960893924007	0.008413951416451957
1958.0      	0.01        
1950.5368505871875	0.01188502227437019
1947.423986694783	0.014125375446227554
1947.1372242725245	0.016788040181225587
1948.0407583393037	0.01995262314968883
1948.2793067900602	0.023713737056616554
1947.9488280243522	0.02818382931264455
1947.6546371696547	0.033496543915782793
1947.4446232591827	0.03981071705534969
1947.3157315623225	0.04731512589614813
1947.4724803606157	0.056234132519034905
1949.6039867888244	0.06683439175686148
1953.5906308735425	0.07943282347242821
1959.3815012475063	0.09440608762859228
1966.7613854240633	0.11220184543019629
1975.9470986961444	0.1333521432163324
1986.8262644975835	0.1584893192461114
1999.0792688126926	0.18836490894898023
2012.4507301824506	0.22387211385683378
2026.6504840537218	0.26607250597988086
2041.625136032395	0.3162277660168379
2057.155266173143	0.3758374042884443
2072.9620718801675	0.4466835921509634
2088.8345703952496	0.5308844442309879
2104.515284686266	0.630957344480193
2119.9072361928943	0.7498942093324559
2135.4643401475273	0.8912509381337458
2151.188668402083	1.0592537251772898
2167.073751328261	1.2589254117941662
2181.963805872592	1.4962356560944328
2195.9864356781286	1.7782794100389228
2209.0415036225886	2.1134890398366473
2220.8405869886824	2.511886431509582
2231.1130466477116	2.9853826189179573
2238.8495080699695	3.548133892335753
2245.312295139107	4.216965034285823
2250.685113840406	5.011872336272725
2255.2107586682578	5.956621435290109
2259.093538062684	7.079457843841373
2262.6716580825378	8.413951416451948
2267.1      	10.0        
