# T(K)	P(bar)
987.3       	1e-08       
999.1487114388985	1.1885022274370215e-08
1009.9271097680404	1.4125375446227554e-08
1019.969548998113	1.6788040181225588e-08
1029.5488168935417	1.9952623149688826e-08
1038.6136580222894	2.3713737056616554e-08
1047.1960178593822	2.818382931264461e-08
1055.8784247227777	3.3496543915782795e-08
1064.6457207449503	3.981071705534969e-08
1073.4731017088966	4.731512589614813e-08
1082.1726600141728	5.6234132519034905e-08
1090.7770464715006	6.683439175686162e-08
1099.5356160278297	7.94328234724282e-08
1108.4387707661617	9.440608762859226e-08
1117.4513200697525	1.1220184543019653e-07
1126.283312551875	1.333521432163324e-07
1135.2638153447183	1.584893192461114e-07
1144.4760831508954	1.883649089489802e-07
1153.9058252343352	2.2387211385683422e-07
1163.398919114567	2.6607250597988136e-07
1172.6539298660891	3.162277660168379e-07
1182.0735681937826	3.7583740428844433e-07
1191.6434883712136	4.466835921509635e-07
1201.3575485357571	5.308844442309889e-07
1211.0496483236725	6.309573444801942e-07
1220.6960026337276	7.498942093324558e-07
1230.6752519142983	8.912509381337459e-07
1241.0408159892884	1.0592537251772896e-06
1251.832559555356	1.2589254117941687e-06
1262.6123386265117	1.4962356560944327e-06
1273.7126934330538	1.7782794100389227e-06
1285.2100164684616	2.1134890398366474e-06
1297.0245895415133	2.511886431509582e-06
1308.982374613352	2.9853826189179636e-06
1320.6752522663535	3.5481338923357534e-06
1332.692076620821	4.216965034285822e-06
1345.0678120797331	5.011872336272725e-06
1357.8192429440364	5.95662143529011e-06
1370.6561870643827	7.079457843841388e-06
1383.4455487326359	8.413951416451948e-06
1396.5809827115559	1e-05       
1410.0147907195212	1.188502227437019e-05
1423.7010360012785	1.4125375446227555e-05
1437.2876537106529	1.678804018122562e-05
1451.0360122793538	1.9952623149688786e-05
1465.1375502315236	2.371373705661655e-05
1479.6121525546307	2.818382931264455e-05
1494.5213445874044	3.349654391578279e-05
1508.9977415415335	3.981071705534977e-05
1523.9245269671892	4.731512589614803e-05
1539.3286475493617	5.623413251903491e-05
1555.2082903074772	6.683439175686148e-05
1571.3744195000186	7.943282347242821e-05
1587.3907375660092	9.440608762859246e-05
1603.8085281051895	0.00011220184543019629
1620.5617859643098	0.0001333521432163324
1637.6176411524052	0.00015848931924611142
1654.5209353263967	0.00018836490894898024
1671.2523818035438	0.00022387211385683424
1688.1987479519564	0.0002660725059798809
1705.3749662474847	0.0003162277660168379
1722.8344270763087	0.00037583740428844437
1739.964632237815	0.0004466835921509635
1757.6189259480636	0.0005308844442309889
1776.1068595763772	0.000630957344480193
1795.528121790998	0.0007498942093324559
1815.7905877324858	0.0008912509381337458
1836.455164728249	0.0010592537251772895
1858.3184918880045	0.0012589254117941673
1881.5299632672948	0.0014962356560944345
1906.1778890194746	0.0017782794100389225
1931.7139056290653	0.0021134890398366475
1958.2757262256757	0.002511886431509582
1986.5291581430206	0.0029853826189179603
2016.322904430968	0.0035481338923357567
2047.4361151829567	0.004216965034285822
2078.639542150058	0.0050118723362727255
2110.1206239498483	0.005956621435290103
2142.3190032656544	0.00707945784384138
2175.113000689599	0.008413951416451957
2208.3      	0.01        
2239.6144516599456	0.01188502227437019
2270.8455817988497	0.014125375446227554
2302.0839934484325	0.016788040181225587
2333.34423965708	0.01995262314968883
2364.037473654418	0.023713737056616554
2393.389070149236	0.02818382931264455
2422.5311738556957	0.033496543915782793
2451.384748235884	0.03981071705534969
2479.8822313759797	0.04731512589614813
2506.6079014849815	0.056234132519034905
2532.0848391865693	0.06683439175686148
2557.092073220383	0.07943282347242821
2581.6324216950757	0.09440608762859228
2605.7369896888936	0.11220184543019629
2628.1223413603516	0.1333521432163324
2650.4366352504167	0.1584893192461114
2672.7828759779795	0.18836490894898023
2695.1682793309196	0.22387211385683378
2717.425196915665	0.26607250597988086
2738.6610892764543	0.3162277660168379
2759.8757306803413	0.3758374042884443
2781.0494291735567	0.4466835921509634
2802.107112818033	0.5308844442309879
2822.2004904271253	0.630957344480193
2841.326533183176	0.7498942093324559
2860.120807750853	0.8912509381337458
2878.5900390266306	1.0592537251772898
2896.79207182063	1.2589254117941662
2913.6984879178385	1.4962356560944328
2930.040557181078	1.7782794100389228
2946.000494893831	2.1134890398366473
2961.48287963208	2.511886431509582
2976.3297939830204	2.9853826189179573
2989.4341637189477	3.548133892335753
3001.8920766208207	4.216965034285823
3013.6177728244206	5.011872336272725
3024.5455933645712	5.956621435290109
3034.3714024443425	7.079457843841373
3043.742839738849	8.413951416451948
3054.2      	10.0        
