# T(K)	P(bar)
2466.2      	1e-08       
2433.577573700695	1.1885022274370215e-08
2406.8819930429963	1.4125375446227554e-08
2384.8617999128182	1.6788040181225588e-08
2366.282777379751	1.9952623149688826e-08
2350.3795473293167	2.3713737056616554e-08
2337.060152827973	2.818382931264461e-08
2324.828767036296	3.3496543915782795e-08
2313.6005118468765	3.981071705534969e-08
2303.326898291103	4.731512589614813e-08
2294.627339985827	5.6234132519034905e-08
2286.59676810727	6.683439175686162e-08
2278.798618261612	7.94328234724282e-08
2271.153174535543	9.440608762859226e-08
2263.5949757325707	1.1220184543019653e-07
2256.3899292339966	1.333521432163324e-07
2249.1000117034177	1.584893192461114e-07
2241.5849146979926	1.883649089489802e-07
2233.7984661896344	2.2387211385683422e-07
2225.8210763743136	2.6607250597988136e-07
2217.6673619516214	3.162277660168379e-07
2208.9835803794117	3.7583740428844433e-07
2199.66617720636	4.466835921509635e-07
2189.5584199712052	5.308844442309889e-07
2178.447964116766	6.309573444801942e-07
2166.0156445445496	7.498942093324558e-07
2151.501351668419	8.912509381337459e-07
2134.522997870171	1.0592537251772896e-06
2114.1568134522518	1.2589254117941687e-06
2081.0419525646003	1.4962356560944327e-06
2088.4124031367814	1.7782794100389227e-06
1744.5175601477297	2.1134890398366474e-06
1210.1841940151344	2.511886431509582e-06
1338.2689253886558	2.9853826189179636e-06
1331.3896001546375	3.5481338923357534e-06
1334.926666759614	4.216965034285822e-06
1343.2001570212492	5.011872336272725e-06
1349.460047920608	5.95662143529011e-06
1354.927635231126	7.079457843841388e-06
1360.3264362125574	8.413951416451948e-06
1365.0973612374887	1e-05       
1369.3013220309208	1.188502227437019e-05
1373.189905241688	1.4125375446227555e-05
1376.4694336542955	1.678804018122562e-05
1379.1019797356141	1.9952623149688786e-05
1381.245103068094	2.371373705661655e-05
1382.9090934503754	2.818382931264455e-05
1384.1105962834395	3.349654391578279e-05
1384.8036152865627	3.981071705534977e-05
1385.2804281597716	4.731512589614803e-05
1385.639972677765	5.623413251903491e-05
1385.9740958203813	6.683439175686148e-05
1386.372276342365	7.943282347242821e-05
1387.1159008445197	9.440608762859246e-05
1388.196855211768	0.00011220184543019629
1389.6942857424574	0.0001333521432163324
1391.7032548799152	0.00015848931924611142
1394.376333958593	0.00018836490894898024
1397.6625222192404	0.00022387211385683424
1401.593199709989	0.0002660725059798809
1406.2360494865507	0.0003162277660168379
1411.665855955225	0.00037583740428844437
1417.8668351992092	0.0004466835921509635
1424.732411621283	0.0005308844442309889
1432.4615232991534	0.000630957344480193
1441.1870784921016	0.0007498942093324559
1450.957911871001	0.0008912509381337458
1461.3888565168843	0.0010592537251772895
1472.9851966525898	0.0012589254117941673
1485.99299483556	0.0014962356560944345
1500.668423888702	0.0017782794100389225
1517.112669878779	0.0021134890398366475
1534.79558641025	0.002511886431509582
1554.5425839622797	0.0029853826189179603
1576.6161833256183	0.0035481338923357567
1601.3069133767035	0.004216965034285822
1629.311989079677	0.0050118723362727255
1659.202173435726	0.005956621435290103
1692.4529332022848	0.00707945784384138
1729.405066369199	0.008413951416451957
1769.6      	0.01        
1813.224801206853	0.01188502227437019
1859.807508924551	0.014125375446227554
1909.1257851717908	0.016788040181225587
1960.1826317834673	0.01995262314968883
2009.2440964890575	0.023713737056616554
2052.4800892969106	0.02818382931264455
2090.8044245518017	0.033496543915782793
2124.0508784583362	0.03981071705534969
2152.502418725145	0.04731512589614813
2174.447250486202	0.056234132519034905
2194.175536679312	0.06683439175686148
2213.7282892047288	0.07943282347242821
2233.2823878780937	0.09440608762859228
2252.413984783452	0.11220184543019629
2270.476647856284	0.1333521432163324
2288.1400220915557	0.1584893192461114
2305.8173103881404	0.18836490894898023
2323.6073590447004	0.22387211385683378
2341.0778427402533	0.26607250597988086
2356.8087313568008	0.3162277660168379
2371.534841678303	0.3758374042884443
2385.3081702851887	0.4466835921509634
2398.2847156344906	0.5308844442309879
2410.4983373184486	0.630957344480193
2421.9560990972636	0.7498942093324559
2433.1677152558277	0.8912509381337458
2444.2617419590383	1.0592537251772898
2455.441661131692	1.2589254117941662
2466.3765449376847	1.4962356560944328
2477.1538312066764	1.7782794100389228
2487.638392621372	2.1134890398366473
2497.7491578094373	2.511886431509582
2507.6203495130358	2.9853826189179573
2516.179953957666	3.548133892335753
2524.035737778057	4.216965034285823
2531.132658984015	5.011872336272725
2537.435118995373	5.956621435290109
2542.744225514282	7.079457843841373
2547.092199881295	8.413951416451948
2551.7      	10.0        
