# T(K)	P(bar)
904.7       	1e-08       
906.3157333780316	1.1885022274370215e-08
908.0592691262494	1.4125375446227554e-08
909.907183272353	1.6788040181225588e-08
911.8532389406323	1.9952623149688826e-08
913.9206588471889	2.3713737056616554e-08
916.066563063628	2.818382931264461e-08
918.3536283034534	3.3496543915782795e-08
920.7583394826678	3.981071705534969e-08
923.2753023406431	4.731512589614813e-08
926.0184063107753	5.6234132519034905e-08
928.8590154905003	6.683439175686162e-08
931.9758560104362	7.94328234724282e-08
935.401637993245	9.440608762859226e-08
939.1080235387532	1.1220184543019653e-07
942.9042308337007	1.333521432163324e-07
947.0021209363343	1.584893192461114e-07
951.3655655898393	1.883649089489802e-07
955.9609202862193	2.2387211385683422e-07
960.7473541754118	2.6607250597988136e-07
965.6687625952475	3.162277660168379e-07
970.8184220577143	3.7583740428844433e-07
976.2379146641006	4.466835921509635e-07
981.9667978876569	5.308844442309889e-07
987.8766148315076	6.309573444801942e-07
994.0094416855857	7.498942093324558e-07
1000.4158597588121	8.912509381337459e-07
1007.0799266796926	1.0592537251772896e-06
1014.0004693587865	1.2589254117941687e-06
1020.8250776916046	1.4962356560944327e-06
1027.7231230245957	1.7782794100389227e-06
1034.8108885042568	2.1134890398366474e-06
1042.1005827339648	2.511886431509582e-06
1049.564166704978	2.9853826189179636e-06
1057.0230228278704	3.5481338923357534e-06
1064.8567213891854	4.216965034285822e-06
1073.1102119786867	5.011872336272725e-06
1081.820948738396	5.95662143529011e-06
1090.8543538601211	7.079457843841388e-06
1100.0049415613473	8.413951416451948e-06
1109.50864422202	1e-05       
1119.3728142434072	1.188502227437019e-05
1129.604228253836	1.4125375446227555e-05
1139.8332335407788	1.678804018122562e-05
1150.1832901428843	1.9952623149688786e-05
1160.870618408565	2.371373705661655e-05
1171.8848722035043	2.818382931264455e-05
1183.1683631702065	3.349654391578279e-05
1194.1796651087197	3.981071705534977e-05
1205.3202453694716	4.731512589614803e-05
1216.7090027384181	5.623413251903491e-05
1228.4228746114363	6.683439175686148e-05
1240.3682902709497	7.943282347242821e-05
1252.153282921151	9.440608762859246e-05
1264.3191417654728	0.00011220184543019629
1276.7707144711783	0.0001333521432163324
1289.4270817878364	0.00015848931924611142
1302.0062774522023	0.00018836490894898024
1314.5392863526579	0.00022387211385683424
1327.5101372959662	0.0002660725059798809
1341.0349956661628	0.0003162277660168379
1355.2114686970172	0.00037583740428844437
1369.4737209581808	0.0004466835921509635
1384.1336066817996	0.0005308844442309889
1399.2877079559898	0.000630957344480193
1414.8872257494766	0.0007498942093324559
1430.744807790641	0.0008912509381337458
1446.2849192383133	0.0010592537251772895
1462.08899948694	0.0012589254117941673
1478.1428935844617	0.0014962356560944345
1494.3545573555912	0.0017782794100389225
1510.0082145961453	0.0021134890398366475
1525.0247576016748	0.002511886431509582
1540.2748265888893	0.0029853826189179603
1555.72414330648	0.0035481338923357567
1571.2901061516914	0.004216965034285822
1586.5017767981533	0.0050118723362727255
1601.8847768206874	0.005956621435290103
1617.7297977334792	0.00707945784384138
1634.1037454987995	0.008413951416451957
1651.1      	0.01        
1667.795911572993	0.01188502227437019
1685.2284387677664	0.014125375446227554
1703.4709348144859	0.016788040181225587
1722.5285977098047	0.01995262314968883
1742.0100545215869	0.023713737056616554
1761.60977075804	0.02818382931264455
1782.088837623954	0.033496543915782793
1803.33123675115	0.03981071705534969
1825.1945529439836	0.04731512589614813
1847.0610103058941	0.056234132519034905
1869.3895808714879	0.06683439175686148
1892.7538149326808	0.07943282347242821
1917.246141735764	0.09440608762859228
1942.946815497324	0.11220184543019629
1969.1917105604125	0.1333521432163324
1996.8930713171947	0.1584893192461114
2026.0341992727913	0.18836490894898023
2056.5260585509436	0.22387211385683378
2088.036748321461	0.26607250597988086
2119.390412129152	0.3162277660168379
2151.216659694738	0.3758374042884443
2183.244589656904	0.4466835921509634
2215.1464531284732	0.5308844442309879
2245.5623109994917	0.630957344480193
2274.2897997747637	0.7498942093324559
2302.6379045076756	0.8912509381337458
2330.76481788247	1.0592537251772898
2358.8836742824737	1.2589254117941662
2385.871898144073	1.4962356560944328
2412.8541987588173	1.7782794100389228
2440.1105113622925	2.1134890398366473
2467.5903275320843	2.511886431509582
2495.1975628657246	2.9853826189179573
2521.594812679995	3.548133892335753
2548.135574028763	4.216965034285823
2574.9181653775445	5.011872336272725
2602.087775140423	5.956621435290109
2629.3464712972077	7.079457843841373
2661.227566364095	8.413951416451948
2703.4      	10.0        
