# T(K)	P(bar)
896.9       	1e-08       
900.2084064407314	1.1885022274370215e-08
903.2257807683144	1.4125375446227554e-08
906.1444075448776	1.6788040181225588e-08
909.1298584109485	1.9952623149688826e-08
912.2309882707832	2.3713737056616554e-08
915.449844595442	2.818382931264461e-08
918.8804424551803	3.3496543915782795e-08
922.5290417796148	3.981071705534969e-08
926.3932890580616	4.731512589614813e-08
930.3120090153932	5.6234132519034905e-08
934.379130297203	6.683439175686162e-08
938.6255257279521	7.94328234724282e-08
943.0411601220644	9.440608762859226e-08
947.6322737209223	1.1220184543019653e-07
952.2806908167763	1.333521432163324e-07
957.11914109239	1.584893192461114e-07
962.2279455178813	1.883649089489802e-07
967.6050583291523	2.2387211385683422e-07
973.1094573017236	2.6607250597988136e-07
978.7253073352042	3.162277660168379e-07
984.4755706309085	3.7583740428844433e-07
990.418583508954	4.466835921509635e-07
996.5872458313277	5.308844442309889e-07
1002.654657893681	6.309573444801942e-07
1008.8758097066554	7.498942093324558e-07
1015.315859758812	8.912509381337459e-07
1021.9799266796925	1.0592537251772896e-06
1028.9232232996267	1.2589254117941687e-06
1036.1355934695366	1.4962356560944327e-06
1043.6614163641616	1.7782794100389227e-06
1051.5738628125105	2.1134890398366474e-06
1059.8931561075499	2.511886431509582e-06
1068.640797535942	2.9853826189179636e-06
1077.2554490383657	3.5481338923357534e-06
1086.2591804170067	4.216965034285822e-06
1095.5027296435774	5.011872336272725e-06
1104.8708065888661	5.95662143529011e-06
1114.2211732938097	7.079457843841388e-06
1123.5428397388491	8.413951416451948e-06
1133.1086442220198	1e-05       
1142.9196990584715	1.188502227437019e-05
1152.9697157250637	1.4125375446227555e-05
1162.8083009628865	1.678804018122562e-05
1172.7079189424567	1.9952623149688786e-05
1182.800795468876	2.371373705661655e-05
1193.0582036732292	2.818382931264455e-05
1203.4507026978072	3.349654391578279e-05
1213.3069729644483	3.981071705534977e-05
1223.2789608901564	4.731512589614803e-05
1233.4141188579174	5.623413251903491e-05
1243.7264913299114	6.683439175686148e-05
1254.0791849014897	7.943282347242821e-05
1264.3930713165637	9.440608762859246e-05
1275.0230727507628	0.00011220184543019629
1286.00785730954	0.0001333521432163324
1297.4022121314006	0.00015848931924611142
1308.8807281751344	0.00018836490894898024
1320.4585984746832	0.00022387211385683424
1332.400959187969	0.0002660725059798809
1344.6535473196318	0.0003162277660168379
1357.1184191126883	0.00037583740428844437
1369.2103286384577	0.0004466835921509635
1381.1654832753438	0.0005308844442309889
1393.0685563356026	0.000630957344480193
1404.8805441094653	0.0007498942093324559
1416.4934198466817	0.0008912509381337458
1427.2855875909102	0.0010592537251772895
1437.9941080306594	0.0012589254117941673
1448.686934681369	0.0014962356560944345
1459.4030382370609	0.0017782794100389225
1469.8388097307634	0.0021134890398366475
1480.0302474403147	0.002511886431509582
1490.4212919811398	0.0029853826189179603
1501.0265945689423	0.0035481338923357567
1511.87145973812	0.004216965034285822
1522.63664204177	0.0050118723362727255
1533.594664867023	0.005956621435290103
1544.878532702718	0.00707945784384138
1556.4590075275996	0.008413951416451957
1568.3      	0.01        
1579.6101336462211	0.01188502227437019
1590.9388705785293	0.014125375446227554
1602.30946699777	0.016788040181225587
1613.6612974948703	0.01995262314968883
1624.555010079418	0.023713737056616554
1634.9114089473624	0.02818382931264455
1645.2475102584135	0.033496543915782793
1655.6271765235317	0.03981071705534969
1666.1304173321212	0.04731512589614813
1676.3974636203302	0.056234132519034905
1686.9347330323926	0.06683439175686148
1698.0309314646013	0.07943282347242821
1709.775084542456	0.09440608762859228
1722.2712112324934	0.11220184543019629
1735.316467896205	0.1333521432163324
1749.2898394765834	0.1584893192461114
1764.238884582427	0.18836490894898023
1780.147205663664	0.22387211385683378
1796.8199503776846	0.26607250597988086
1813.9677196678156	0.3162277660168379
1832.0920302638553	0.3758374042884443
1851.3182029579918	0.4466835921509634
1871.8422641702477	0.5308844442309879
1893.747985642121	0.630957344480193
1917.3077185105744	0.7498942093324559
1943.011132982093	0.8912509381337458
1971.0420033130677	1.0592537251772898
2001.5749247252277	1.2589254117941662
2033.5265001016035	1.4962356560944328
2066.9175114123504	1.7782794100389228
2101.0670750971312	2.1134890398366473
2135.444623579256	2.511886431509582
2169.873414155221	2.9853826189179573
2204.1708059920634	3.548133892335753
2241.153169769934	4.216965034285823
2280.9285343774804	5.011872336272725
2323.7667817060083	5.956621435290109
2369.9639324600935	7.079457843841373
2427.683951071878	8.413951416451948
2501.0      	10.0        
