# T(K)	P(bar)
999.0       	1e-08       
1011.4642289162439	1.1885022274370215e-08
1022.7556147574968	1.4125375446227554e-08
1033.3049774525493	1.6788040181225588e-08
1043.4303335721493	1.9952623149688826e-08
1052.9722716024098	2.3713737056616554e-08
1062.0174242301596	2.818382931264461e-08
1071.072241829905	3.3496543915782795e-08
1080.1841625969937	3.981071705534969e-08
1089.4045648335416	4.731512589614813e-08
1098.4176207354044	5.6234132519034905e-08
1107.4595895240143	6.683439175686162e-08
1116.6470274576436	7.94328234724282e-08
1125.9694192000632	9.440608762859226e-08
1135.4623428798293	1.1220184543019653e-07
1144.681703453273	1.333521432163324e-07
1154.051048764749	1.584893192461114e-07
1163.6935111077207	1.883649089489802e-07
1173.6179326010606	2.2387211385683422e-07
1183.669443768365	2.6607250597988136e-07
1193.4645757749445	3.162277660168379e-07
1203.4817379917188	3.7583740428844433e-07
1213.7144916384939	4.466835921509635e-07
1224.149564282276	5.308844442309889e-07
1234.5508421034533	6.309573444801942e-07
1245.0924188865654	7.498942093324558e-07
1256.012484650512	8.912509381337459e-07
1267.3552235106374	1.0592537251772896e-06
1279.1962705897083	1.2589254117941687e-06
1291.0617828047216	1.4962356560944327e-06
1303.2500386279341	1.7782794100389227e-06
1315.8115719690697	2.1134890398366474e-06
1328.7354487509476	2.511886431509582e-06
1342.0575448712511	2.9853826189179636e-06
1355.2096587996477	3.5481338923357534e-06
1368.8155192597708	4.216965034285822e-06
1382.8503532978111	5.011872336272725e-06
1397.3059255842393	5.95662143529011e-06
1411.9653988080915	7.079457843841388e-06
1426.5313777739048	8.413951416451948e-06
1441.561601455869	1e-05       
1457.1115184935545	1.188502227437019e-05
1473.215013679667	1.4125375446227555e-05
1489.2222356935852	1.678804018122562e-05
1505.3754301482302	1.9952623149688786e-05
1522.0346591147932	2.371373705661655e-05
1539.295189295582	2.818382931264455e-05
1557.271971274949	3.349654391578279e-05
1575.059459021778	3.981071705534977e-05
1593.6166373009978	4.731512589614803e-05
1612.9132991908637	5.623413251903491e-05
1632.908525167594	6.683439175686148e-05
1653.3750039975603	7.943282347242821e-05
1673.7713723797715	9.440608762859246e-05
1694.6971282478482	0.00011220184543019629
1716.1553574656582	0.0001333521432163324
1738.2330701734097	0.00015848931924611142
1760.561142477659	0.00018836490894898024
1783.0967383640498	0.00022387211385683424
1806.440842043939	0.0002660725059798809
1830.7217251979619	0.0003162277660168379
1856.090009416422	0.00037583740428844437
1881.514024316757	0.0004466835921509635
1907.8990899571434	0.0005308844442309889
1935.6663486565349	0.000630957344480193
1965.020486692159	0.0007498942093324559
1996.0148515907986	0.0008912509381337458
2027.8116661616914	0.0010592537251772895
2061.242875745349	0.0012589254117941673
2096.316830447932	0.0014962356560944345
2132.906180442957	0.0017782794100389225
2169.747616170726	0.0021134890398366475
2206.2677067174936	0.002511886431509582
2242.817410551169	0.0029853826189179603
2278.7158669845994	0.0035481338923357567
2313.3193443190844	0.004216965034285822
2344.2887455839327	0.0050118723362727255
2372.1692819619093	0.005956621435290103
2397.8946966002186	0.00707945784384138
2421.4539931619997	0.008413951416451957
2442.8      	0.01        
2460.650006843016	0.01188502227437019
2477.3881729678214	0.014125375446227554
2493.291098815172	0.016788040181225587
2508.599844810629	0.01995262314968883
2523.2308164570286	0.023713737056616554
2537.0017223330633	0.02818382931264455
2550.7310441600303	0.033496543915782793
2564.462399710286	0.03981071705534969
2578.2686459220545	0.04731512589614813
2591.9057913735683	0.056234132519034905
2605.648777224568	0.06683439175686148
2619.7953760452233	0.07943282347242821
2634.4372004068814	0.09440608762859228
2649.7371067175513	0.11220184543019629
2665.0980894162412	0.1333521432163324
2681.008234602056	0.1584893192461114
2697.5186924672944	0.18836490894898023
2714.6073590447004	0.22387211385683378
2732.0778427402533	0.26607250597988086
2749.194770252265	0.3162277660168379
2766.475690667983	0.3758374042884443
2783.773966940586	0.4466835921509634
2800.895914226262	0.5308844442309879
2817.049413872787	0.630957344480193
2831.7108199400564	0.7498942093324559
2845.2078725442016	0.8912509381337458
2857.437556765088	1.0592537251772898
2868.382383545811	1.2589254117941662
2876.6029344921603	1.4962356560944328
2882.8661570875897	1.7782794100389228
2887.5361536559512	2.1134890398366473
2890.738860060378	2.511886431509582
2892.6649462464457	2.9853826189179573
2893.605940968396	3.548133892335753
2894.113989074086	4.216965034285823
2894.3      	5.011872336272725
2894.2875355373826	5.956621435290109
2894.2082951415778	7.079457843841373
2894.0621018224983	8.413951416451948
2893.9      	10.0        
