# T(K)	P(bar)
1222.7      	1e-08       
1237.7801781949618	1.1885022274370215e-08
1248.6510964628235	1.4125375446227554e-08
1256.4560803624513	1.6788040181225588e-08
1262.2744084467708	1.9952623149688826e-08
1266.8068290111448	2.3713737056616554e-08
1270.9224229418671	2.818382931264461e-08
1275.2134394997797	3.3496543915782795e-08
1279.7613022245182	3.981071705534969e-08
1284.61127577548	4.731512589614813e-08
1289.7056117200111	5.6234132519034905e-08
1295.1267594547437	6.683439175686162e-08
1300.8711714472074	7.94328234724282e-08
1306.941979118687	9.440608762859226e-08
1313.3807740852606	1.1220184543019653e-07
1319.7336107829278	1.333521432163324e-07
1326.3404148245324	1.584893192461114e-07
1333.1527053739653	1.883649089489802e-07
1340.141380429329	2.2387211385683422e-07
1347.321031263118	2.6607250597988136e-07
1354.3383968151174	3.162277660168379e-07
1361.4939526762644	3.7583740428844433e-07
1368.770255621088	4.466835921509635e-07
1376.1303814370237	5.308844442309889e-07
1383.3009593288957	6.309573444801942e-07
1390.2731218962838	7.498942093324558e-07
1397.284476126919	8.912509381337459e-07
1404.3766674554922	1.0592537251772896e-06
1411.6095709351227	1.2589254117941687e-06
1418.5892840027775	1.4962356560944327e-06
1425.6427437667217	1.7782794100389227e-06
1432.9266320813203	2.1134890398366474e-06
1440.4737260773609	2.511886431509582e-06
1448.258324412719	2.9853826189179636e-06
1455.9495080699694	3.5481338923357534e-06
1463.8567213891854	4.216965034285822e-06
1471.9802041276241	5.011872336272725e-06
1480.3336975000734	5.95662143529011e-06
1488.8124198511664	7.079457843841388e-06
1497.1465015850883	8.413951416451948e-06
1505.6947224749772	1e-05       
1514.5010079488584	1.188502227437019e-05
1523.6144956790279	1.4125375446227555e-05
1532.8284088382586	1.678804018122562e-05
1542.232547742029	1.9952623149688786e-05
1552.100795468876	2.371373705661655e-05
1562.4612348233543	2.818382931264455e-05
1573.2660084405532	3.349654391578279e-05
1584.1233061561502	3.981071705534977e-05
1595.5006735292434	4.731512589614803e-05
1607.423941263389	5.623413251903491e-05
1619.9155237444274	6.683439175686148e-05
1632.8962087610985	7.943282347242821e-05
1646.0419044412865	9.440608762859246e-05
1659.8646211323892	0.00011220184543019629
1674.3675002218524	0.0001333521432163324
1689.5570944512735	0.00015848931924611142
1705.0452291130239	0.00018836490894898024
1720.9668658950627	0.00022387211385683424
1737.8163115619554	0.0002660725059798809
1755.733488482276	0.0003162277660168379
1774.8507390567197	0.00037583740428844437
1794.693872637469	0.0004466835921509635
1815.7730286535614	0.0005308844442309889
1838.3744855325178	0.000630957344480193
1862.6256258438432	0.0007498942093324559
1888.4943076584702	0.0008912509381337458
1915.141420671756	0.0010592537251772895
1943.869609879558	0.0012589254117941673
1974.9669991997619	0.0014962356560944345
2008.635380643291	0.0017782794100389225
2044.2909332467755	0.0021134890398366475
2081.3442406144873	0.002511886431509582
2120.840821400229	0.0029853826189179603
2162.709435731707	0.0035481338923357567
2206.8032349995856	0.004216965034285822
2251.502144129958	0.0050118723362727255
2296.2297297765663	0.005956621435290103
2341.0764996160897	0.00707945784384138
2385.366333416399	0.008413951416451957
2428.3      	0.01        
2465.0771692713856	0.01188502227437019
2498.6573426093382	0.014125375446227554
2528.9705248127707	0.016788040181225587
2555.953558912462	0.01995262314968883
2579.092758635844	0.023713737056616554
2598.658598782392	0.02818382931264455
2616.759940891992	0.033496543915782793
2633.5269206000935	0.03981071705534969
2649.139437952505	0.04731512589614813
2663.4819529963393	0.056234132519034905
2677.2212628737307	0.06683439175686148
2690.9571177575212	0.07943282347242821
2704.8759035390785	0.09440608762859228
2719.201962458854	0.11220184543019629
2733.327891272222	0.1333521432163324
2747.8764471125555	0.1584893192461114
2762.821456625602	0.18836490894898023
2778.122990930213	0.22387211385683378
2793.6789010700886	0.26607250597988086
2808.725136032395	0.3162277660168379
2823.8981175999493	0.3758374042884443
2839.0308456646026	0.4466835921509634
2853.9096430148697	0.5308844442309879
2867.856811002358	0.630957344480193
2880.551619413311	0.7498942093324559
2892.4467928345657	0.8912509381337458
2903.544075213489	1.0592537251772898
2913.8869343339793	1.2589254117941662
2922.1850376477464	1.4962356560944328
2928.7652089429043	1.7782794100389228
2933.944803194787	2.1134890398366473
2937.8400042547178	2.511886431509582
2940.6488799427334	2.9853826189179573
2942.2853966946936	3.548133892335753
2943.441967222257	4.216965034285823
2944.2275137393594	5.011872336272725
2944.724928925235	5.956621435290109
2944.883409716844	7.079457843841373
2944.968949088751	8.413951416451948
2945.1      	10.0        
