# T(K)	P(bar)
999.4       	1e-08       
1008.0172446828353	1.1885022274370215e-08
1016.5130898102149	1.4125375446227554e-08
1024.9314268165444	1.6788040181225588e-08
1033.3129557625293	1.9952623149688826e-08
1041.582635388755	2.3713737056616554e-08
1049.5341426983457	2.818382931264461e-08
1057.6392447853052	3.3496543915782795e-08
1065.934967263316	3.981071705534969e-08
1074.4495043654128	4.731512589614813e-08
1082.9139394732495	5.6234132519034905e-08
1091.4770464715007	6.683439175686162e-08
1100.3201805997553	7.94328234724282e-08
1109.425869722096	9.440608762859226e-08
1118.7623428798292	1.1220184543019653e-07
1127.9817034532732	1.333521432163324e-07
1137.4084954487553	1.584893192461114e-07
1147.1297491005248	1.883649089489802e-07
1157.149963277268	2.2387211385683422e-07
1167.3610222408788	2.6607250597988136e-07
1177.4563734371472	3.162277660168379e-07
1187.8878653401707	3.7583740428844433e-07
1198.5951604833474	4.466835921509635e-07
1209.5109081132885	5.308844442309889e-07
1220.384971289974	6.309573444801942e-07
1231.2578909708448	7.498942093324558e-07
1242.402023439881	8.912509381337459e-07
1253.8794087045871	1.0592537251772896e-06
1265.7962705897085	1.2589254117941687e-06
1277.6617828047217	1.4962356560944327e-06
1289.909848998997	1.7782794100389227e-06
1302.6658967384876	2.1134890398366474e-06
1315.945163766042	2.511886431509582e-06
1329.7487814328626	2.9853826189179636e-06
1343.4381243645455	3.5481338923357534e-06
1357.750491944985	4.216965034285822e-06
1372.607874888233	5.011872336272725e-06
1387.9554991356495	5.95662143529011e-06
1403.565857109157	7.079457843841388e-06
1419.1277159276653	8.413951416451948e-06
1435.2699727024567	1e-05       
1452.0364399730388	1.188502227437019e-05
1469.4461612890022	1.4125375446227555e-05
1486.9369794895758	1.678804018122562e-05
1504.626667482989	1.9952623149688786e-05
1522.897579307401	2.371373705661655e-05
1541.8279201261075	2.818382931264455e-05
1561.4978733011349	3.349654391578279e-05
1580.9794075000425	3.981071705534977e-05
1601.2505212039935	4.731512589614803e-05
1622.3881284268941	5.623413251903491e-05
1644.423461761729	6.683439175686148e-05
1667.1197515148044	7.943282347242821e-05
1689.8190749133305	9.440608762859246e-05
1713.290445572855	0.00011220184543019629
1737.5546432245492	0.0001333521432163324
1762.6809213591946	0.00015848931924611142
1788.075172606633	0.00018836490894898024
1813.699031290632	0.00022387211385683424
1840.0073000359316	0.0002660725059798809
1866.9178041031903	0.0003162277660168379
1894.3332110091462	0.00037583740428844437
1920.7648850366286	0.0004466835921509635
1947.281894097335	0.0005308844442309889
1974.1441457076542	0.000630957344480193
2001.4190914612066	0.0007498942093324559
2029.1298156341506	0.0008912509381337458
2055.6930551347427	0.0010592537251772895
2082.4917577537954	0.0012589254117941673
2109.5235656094437	0.0014962356560944345
2136.7145288592073	0.0017782794100389225
2163.199251968226	0.0021134890398366475
2188.590311821388	0.002511886431509582
2213.7898463009124	0.0029853826189179603
2238.463890233665	0.0035481338923357567
2262.24291947624	0.004216965034285822
2283.77328408354	0.0050118723362727255
2303.7299686372526	0.005956621435290103
2322.546392575979	0.00707945784384138
2340.1870513139993	0.008413951416451957
2356.7      	0.01        
2371.087721032948	0.01188502227437019
2384.817143031083	0.014125375446227554
2398.048487088383	0.016788040181225587
2410.919433643794	0.01995262314968883
2423.323953083133	0.023713737056616554
2435.145862454824	0.02818382931264455
2446.968141517267	0.033496543915782793
2458.8809439317047	0.03981071705534969
2471.0113302988298	0.04731512589614813
2483.080987767411	0.056234132519034905
2495.3373908916087	0.06683439175686148
2508.118859469819	0.07943282347242821
2521.5105793221273	0.09440608762859228
2535.6129450396966	0.11220184543019629
2550.124828192228	0.1333521432163324
2565.4069839116946	0.1584893192461114
2581.58245447449	0.18836490894898023
2598.719466411426	0.22387211385683378
2616.748367394051	0.26607250597988086
2634.843112654424	0.3162277660168379
2653.394072713339	0.3758374042884443
2672.236419371716	0.4466835921509634
2691.1106176348057	0.5308844442309879
2708.918866025609	0.630957344480193
2725.2045483825227	0.7498942093324559
2740.2584910432065	0.8912509381337458
2753.827779092487	1.0592537251772898
2765.709688274819	1.2589254117941662
2774.395553425679	1.4962356560944328
2780.76615708759	1.7782794100389228
2785.2818288865333	2.1134890398366473
2788.184002552831	2.511886431509582
2789.8693279656404	2.9853826189179573
2790.5794557262975	3.548133892335753
2790.9604918055643	4.216965034285823
2791.067498037234	5.011872336272725
2790.975071074765	5.956621435290109
2790.816590283156	7.079457843841373
2790.5931527337475	8.413951416451948
2790.3      	10.0        
