# T(K)	P(bar)
2394.2      	1e-08       
2374.3495613556115	1.1885022274370215e-08
2361.1181394003834	1.4125375446227554e-08
2351.5685731834556	1.6788040181225588e-08
2343.3500775946854	1.9952623149688826e-08
2336.034591771486	2.3713737056616554e-08
2329.3598420188573	2.818382931264461e-08
2322.778295027112	3.3496543915782795e-08
2316.201865256083	3.981071705534969e-08
2309.5471401636178	4.731512589614813e-08
2303.042065034447	5.6234132519034905e-08
2296.608154440229	6.683439175686162e-08
2289.963723407202	7.94328234724282e-08
2283.0838229694446	9.440608762859226e-08
2275.9949757325703	1.1220184543019653e-07
2268.7899292339966	1.333521432163324e-07
2261.270224967393	1.584893192461114e-07
2253.331248748363	1.883649089489802e-07
2244.8902667942866	2.2387211385683422e-07
2235.8758163029743	2.6607250597988136e-07
2226.354272471708	3.162277660168379e-07
2215.908049760861	3.7583740428844433e-07
2204.2821641372384	4.466835921509635e-07
2191.1574453512694	5.308844442309889e-07
2176.185909093514	6.309573444801942e-07
2158.503515048592	7.498942093324558e-07
2137.034873410602	8.912509381337459e-07
2110.504996450285	1.0592537251772896e-06
2077.3243712365925	1.2589254117941687e-06
2035.1358833609897	1.4962356560944327e-06
1979.1067727973352	1.7782794100389227e-06
1915.2831488834088	2.1134890398366474e-06
1780.6943086489434	2.511886431509582e-06
1418.590105668161	2.9853826189179636e-06
1426.2685702522422	3.5481338923357534e-06
1425.1757922682077	4.216965034285822e-06
1420.6550274787187	5.011872336272725e-06
1422.2606165187278	5.95662143529011e-06
1426.4603574963721	7.079457843841388e-06
1432.9675198100722	8.413951416451948e-06
1441.036396724295	1e-05       
1450.4790446132781	1.188502227437019e-05
1461.0939608286442	1.4125375446227555e-05
1472.3380582432987	1.678804018122562e-05
1484.0719656109052	1.9952623149688786e-05
1497.853921797672	2.371373705661655e-05
1514.1394329057573	2.818382931264455e-05
1532.6390050598038	3.349654391578279e-05
1548.270433685805	3.981071705534977e-05
1563.2440988074175	4.731512589614803e-05
1577.7637773299784	5.623413251903491e-05
1592.763950245307	6.683439175686148e-05
1610.8413459433705	7.943282347242821e-05
1629.4248004373762	9.440608762859246e-05
1646.758724654454	0.00011220184543019629
1663.0857145204786	0.0001333521432163324
1679.1730448465353	0.00015848931924611142
1695.6832391560154	0.00018836490894898024
1716.516050486075	0.00022387211385683424
1737.5697949979476	0.0002660725059798809
1757.7022668174948	0.0003162277660168379
1777.0706782533616	0.00037583740428844437
1797.3788852774098	0.0004466835921509635
1821.737316868389	0.0005308844442309889
1846.6118583938307	0.000630957344480193
1870.4295170219502	0.0007498942093324559
1893.9756236891337	0.0008912509381337458
1921.3574311253274	0.0010592537251772895
1947.8658070452077	0.0012589254117941673
1973.1049801424779	0.0014962356560944345
1997.4778890194746	0.0017782794100389225
2023.0139056290652	0.0021134890398366475
2045.7194830128126	0.002511886431509582
2066.5141384309977	0.0029853826189179603
2085.7379018581983	0.0035481338923357567
2104.168995366328	0.004216965034285822
2121.876940170158	0.0050118723362727255
2137.417396615039	0.005956621435290103
2151.236459998153	0.00707945784384138
2163.4061701272	0.008413951416451957
2174.2      	0.01        
2183.740520898853	0.01188502227437019
2192.896345631247	0.014125375446227554
2201.967753180025	0.016788040181225587
2211.1895752328455	0.01995262314968883
2220.49296481235	0.023713737056616554
2229.5174242301596	0.02818382931264455
2238.5237875531234	0.033496543915782793
2247.418032374542	0.03981071705534969
2256.1180412407684	0.04731512589614813
2264.2689787520176	0.056234132519034905
2271.756931664798	0.06683439175686148
2278.624865162984	0.07943282347242821
2284.780682250884	0.09440608762859228
2290.2230049054415	0.11220184543019629
2294.545693504068	0.1333521432163324
2298.2221471965554	0.1584893192461114
2301.368329748147	0.18836490894898023
2304.1285061574204	0.22387211385683378
2306.7610447964767	0.26607250597988086
2309.380280128725	0.3162277660168379
2312.187785315454	0.3758374042884443
2315.3249048622597	0.4466835921509634
2318.9214225636065	0.5308844442309879
2322.9400980854252	0.630957344480193
2327.3493452220496	0.7498942093324559
2332.0309330757536	0.8912509381337458
2336.875296830945	1.0592537251772898
2341.7593949255775	1.2589254117941662
2346.1798798684254	1.4962356560944328
2350.070897811018	1.7782794100389228
2353.46608530947	2.1134890398366473
2356.2937175679253	2.511886431509582
2358.460564527252	2.9853826189179573
2359.783416371895	3.548133892335753
2360.627978148171	4.216965034285823
2361.1300078510626	5.011872336272725
2361.4      	5.956621435290109
2361.4      	7.079457843841373
2361.262101822498	8.413951416451948
2361.1      	10.0        
