# T(K)	P(bar)
2655.6      	1e-08       
2572.120442135033	1.1885022274370215e-08
2529.85348805354	1.4125375446227554e-08
2507.326371458382	1.6788040181225588e-08
2488.4593968500676	1.9952623149688826e-08
2473.5898767529116	2.3713737056616554e-08
2460.7815591987505	2.818382931264461e-08
2448.6318584827327	3.3496543915782795e-08
2437.079004883608	3.981071705534969e-08
2426.108911573685	4.731512589614813e-08
2416.233737281209	5.6234132519034905e-08
2407.040410475986	6.683439175686162e-08
2398.275795401984	7.94328234724282e-08
2389.9007513626575	9.440608762859226e-08
2381.7883620465245	1.1220184543019653e-07
2374.350894693158	1.333521432163324e-07
2367.287245123449	1.584893192461114e-07
2360.4922465972513	1.883649089489802e-07
2353.9668189660183	2.2387211385683422e-07
2347.8242288082215	2.6607250597988136e-07
2342.247642080347	3.162277660168379e-07
2336.9325991670275	3.7583740428844433e-07
2331.83308860318	4.466835921509635e-07
2326.9070096335454	5.308844442309889e-07
2322.3367511969673	6.309573444801942e-07
2318.1824948832996	7.498942093324558e-07
2314.161530265776	8.912509381337459e-07
2310.4084070480535	1.0592537251772896e-06
2307.140722414119	1.2589254117941687e-06
2304.4263895544755	1.4962356560944327e-06
2302.005688868114	1.7782794100389227e-06
2299.7197266140747	2.1134890398366474e-06
2297.506282432075	2.511886431509582e-06
2295.3394354727484	2.9853826189179636e-06
2293.412622982508	3.5481338923357534e-06
2291.5695628240073	4.216965034285822e-06
2289.7199528936253	5.011872336272725e-06
2287.8257818224147	5.95662143529011e-06
2286.0824931147135	7.079457843841388e-06
2284.452069136233	8.413951416451948e-06
2282.808280254777	1e-05       
2281.0891753732412	1.188502227437019e-05
2279.2343398618927	1.4125375446227555e-05
2277.360323626117	1.678804018122562e-05
2275.5610770650273	1.9952623149688786e-05
2273.5083483054464	2.371373705661655e-05
2271.140600639199	2.818382931264455e-05
2268.559969595895	3.349654391578279e-05
2265.941897806318	3.981071705534977e-05
2263.124831617689	4.731512589614803e-05
2259.9952937140274	5.623413251903491e-05
2256.5034992884166	6.683439175686148e-05
2252.7606023817693	7.943282347242821e-05
2248.920495777402	9.440608762859246e-05
2244.7110067588123	0.00011220184543019629
2240.135357071254	0.0001333521432163324
2235.2202480236915	0.00015848931924611142
2230.109949785043	0.00018836490894898024
2225.201388640633	0.00022387211385683424
2220.563287568011	0.0002660725059798809
2216.2307683012823	0.0003162277660168379
2212.167072022388	0.00037583740428844437
2209.066582400396	0.0004466835921509635
2207.7726186308623	0.0005308844442309889
2207.2878814160617	0.000630957344480193
2206.9973567954703	0.0007498942093324559
2206.516824006344	0.0008912509381337458
2207.0192793795454	0.0010592537251772895
2207.4608127952447	0.0012589254117941673
2206.9813470323024	0.0014962356560944345
2204.898987254313	0.0017782794100389225
2201.420396756412	0.0021134890398366475
2197.7526372944308	0.002511886431509582
2192.1037970953275	0.0029853826189179603
2184.076462886995	0.0035481338923357567
2173.817359685965	0.004216965034285822
2162.8961602474797	0.0050118723362727255
2151.0481146531292	0.005956621435290103
2138.2650205051077	0.00707945784384138
2124.9298079796004	0.008413951416451957
2111.8      	0.01        
2100.566806038447	0.01188502227437019
2089.2611294214707	0.014125375446227554
2077.991430911274	0.016788040181225587
2066.920219183737	0.01995262314968883
2056.5036035007024	0.023713737056616554
2046.609997423415	0.02818382931264455
2036.8885782326226	0.033496543915782793
2027.443525773415	0.03981071705534969
2018.3976903215544	0.04731512589614813
2010.403501608598	0.056234132519034905
2003.2618542122968	0.06683439175686148
1996.744263980867	0.07943282347242821
1990.8628672270834	0.09440608762859228
1985.5747985783898	0.11220184543019629
1981.1749191119309	0.1333521432163324
1977.305888221861	0.1584893192461114
1973.9229562734404	0.18836490894898023
1970.9714938425793	0.22387211385683378
1968.3389552035235	0.26607250597988086
1966.3762646112316	0.3162277660168379
1964.730596729902	0.3758374042884443
1963.4386623102928	0.4466835921509634
1962.5386561689875	0.5308844442309879
1962.0658708134795	0.630957344480193
1962.0663680210698	0.7498942093324559
1962.4133857627912	0.8912509381337458
1962.9934815515992	1.0592537251772898
1963.631855517176	1.2589254117941662
1964.1747220891048	1.4962356560944328
1964.6588622263773	1.7782794100389228
1965.054324769418	2.1134890398366473
1965.3548575075472	2.511886431509582
1965.5956182808056	2.9853826189179573
1965.6754950806996	3.548133892335753
1965.7534972685214	4.216965034285823
1965.8325019627657	5.011872336272725
1965.9      	5.956621435290109
1965.9      	7.079457843841373
1965.9      	8.413951416451948
1965.9      	10.0        
