# T(K)	P(bar)
2970.1      	1e-08       
2842.610942504839	1.1885022274370215e-08
2788.796013000822	1.4125375446227554e-08
2769.476166457524	1.6788040181225588e-08
2754.3816718679786	1.9952623149688826e-08
2740.227797123092	2.3713737056616554e-08
2727.762496779269	2.818382931264461e-08
2716.313309804114	3.3496543915782795e-08
2705.9881490325974	3.981071705534969e-08
2696.8370192273605	4.731512589614813e-08
2689.234702510137	5.6234132519034905e-08
2682.5443972648104	6.683439175686162e-08
2676.371110838755	7.94328234724282e-08
2670.662867227083	9.440608762859226e-08
2665.374339965124	1.1220184543019653e-07
2660.9583437240626	1.333521432163324e-07
2656.985112483697	1.584893192461114e-07
2653.414242295028	1.883649089489802e-07
2650.191417152061	2.2387211385683422e-07
2647.160009022239	2.6607250597988136e-07
2644.2279222090715	3.162277660168379e-07
2641.057108560836	3.7583740428844433e-07
2637.5245377670294	4.466835921509635e-07
2633.5070096335453	5.308844442309889e-07
2628.9367511969676	6.309573444801942e-07
2623.9860786304616	7.498942093324558e-07
2618.6661423720866	8.912509381337459e-07
2613.034480841656	1.0592537251772896e-06
2607.163241675566	1.2589254117941687e-06
2601.4243664866053	1.4962356560944327e-06
2595.793653283473	1.7782794100389227e-06
2590.0835729581236	2.1134890398366474e-06
2584.246848147168	2.511886431509582e-06
2578.3080824067915	2.9853826189179636e-06
2572.6888591089223	3.5481338923357534e-06
2567.0481966664574	4.216965034285822e-06
2561.489866531938	5.011872336272725e-06
2556.139667780332	5.95662143529011e-06
2551.3060036362513	7.079457843841388e-06
2547.3525455624595	8.413951416451948e-06
2544.1943585077343	1e-05       
2541.8954057431124	1.188502227437019e-05
2540.4447799539644	1.4125375446227555e-05
2539.8201078753723	1.678804018122562e-05
2539.762561866738	1.9952623149688786e-05
2540.704011630351	2.371373705661655e-05
2542.5151557506256	2.818382931264455e-05
2544.5259020261856	3.349654391578279e-05
2546.2199484782645	3.981071705534977e-05
2548.494740222539	4.731512589614803e-05
2551.159754099884	5.623413251903491e-05
2553.811202445601	6.683439175686148e-05
2555.483560637933	7.943282347242821e-05
2556.2443107600675	9.440608762859246e-05
2556.998034507355	0.00011220184543019629
2556.9792856931567	0.0001333521432163324
2555.254036941301	0.00015848931924611142
2551.3230382961865	0.00018836490894898024
2545.9508154089876	0.00022387211385683424
2538.700626024022	0.0002660725059798809
2528.9547482334096	0.0003162277660168379
2516.0253905136165	0.00037583740428844437
2500.290405682007	0.0004466835921509635
2481.8677133837564	0.0005308844442309889
2459.6033115186015	0.000630957344480193
2433.0847997169003	0.0007498942093324559
2403.051500396513	0.0008912509381337458
2372.7719892084383	0.0010592537251772895
2339.231173546063	0.0012589254117941673
2303.30195752123	0.0014962356560944345
2265.911633104066	0.0017782794100389225
2227.8052553770603	0.0021134890398366475
2191.0646398928066	0.002511886431509582
2152.595574627577	0.0029853826189179603
2113.215023915792	0.0035481338923357567
2074.550828691429	0.004216965034285822
2038.978921948934	0.0050118723362727255
2005.7833856045793	0.005956621435290103
1974.8743344696722	0.00707945784384138
1946.8291475444007	0.008413951416451957
1922.1      	0.01        
1902.5573200942845	0.01188502227437019
1885.4213286953309	0.014125375446227554
1870.3824518208328	0.016788040181225587
1857.157185826522	0.01995262314968883
1845.7863763404616	0.023713737056616554
1836.0909350039335	0.02818382931264455
1827.2153923843493	0.033496543915782793
1819.2080466632224	0.03981071705534969
1812.117932194069	0.04731512589614813
1806.318226657218	0.056234132519034905
1801.6658410011212	0.06683439175686148
1797.781861703601	0.07943282347242821
1794.5814336135415	0.09440608762859228
1791.9363010311106	0.11220184543019629
1789.6977658639648	0.1333521432163324
1787.4949972385555	0.1584893192461114
1785.3578121870908	0.18836490894898023
1783.283601209305	0.22387211385683378
1781.2094798573214	0.26607250597988086
1779.2033151956807	0.3162277660168379
1777.377533055676	0.3758374042884443
1775.8182164137238	0.4466835921509634
1774.5875363098103	0.5308844442309879
1773.7207631580454	0.630957344480193
1773.201791873581	0.7498942093324559
1772.8656918159465	0.8912509381337458
1772.67581480605	1.0592537251772898
1772.6      	1.2589254117941662
1772.6      	1.4962356560944328
1772.6598103710628	1.7782794100389228
1772.7385811923546	2.1134890398366473
1772.818285835849	2.511886431509582
1772.8985394269353	2.9853826189179573
1772.9754950806998	3.548133892335753
1773.106994537043	4.216965034285823
1773.2650039255313	5.011872336272725
1773.4373933878526	5.956621435290109
1773.6751145752664	7.079457843841373
1774.0447454437542	8.413951416451948
1774.3      	10.0        
