# T(K)	P(bar)
2572.3      	1e-08       
2479.0491021821754	1.1885022274370215e-08
2454.9873090419005	1.4125375446227554e-08
2453.9622878201467	1.6788040181225588e-08
2444.431594273293	1.9952623149688826e-08
2437.5932053516062	2.3713737056616554e-08
2431.1003108091163	2.818382931264461e-08
2424.8690206878027	3.3496543915782795e-08
2418.989502441804	3.981071705534969e-08
2413.5044557868423	4.731512589614813e-08
2408.5668686406043	5.6234132519034905e-08
2404.065841001121	6.683439175686162e-08
2399.7590388439735	7.94328234724282e-08
2395.6112630508205	9.440608762859226e-08
2391.594181023262	1.1220184543019653e-07
2387.8754473465788	1.333521432163324e-07
2384.2574525357154	1.584893192461114e-07
2380.7055283166155	1.883649089489802e-07
2377.211340461543	2.2387211385683422e-07
2373.7810628409547	2.6607250597988136e-07
2370.6090739624196	3.162277660168379e-07
2367.4591510103196	3.7583740428844433e-07
2364.3256525084516	4.466835921509635e-07
2361.221713042089	5.308844442309889e-07
2358.3062033497895	6.309573444801942e-07
2355.4443832204165	7.498942093324558e-07
2352.6778405807277	8.912509381337459e-07
2350.0986293754527	1.0592537251772896e-06
2347.7771287194632	1.2589254117941687e-06
2345.6832147991668	1.4962356560944327e-06
2343.704740723428	1.7782794100389227e-06
2341.696888998784	2.1134890398366474e-06
2339.6062824320747	2.511886431509582e-06
2337.4394354727483	2.9853826189179636e-06
2335.3616328211083	3.5481338923357534e-06
2333.2020764814	4.216965034285822e-06
2330.892439154266	5.011872336272725e-06
2328.4011371962397	5.95662143529011e-06
2325.8654445304924	7.079457843841388e-06
2323.324680071223	8.413951416451948e-06
2320.599909008189	1e-05       
2317.6642538937567	1.188502227437019e-05
2314.523899769821	1.4125375446227555e-05
2311.4005393768616	1.678804018122562e-05
2308.2349634637444	1.9952623149688786e-05
2304.8097938638116	2.371373705661655e-05
2301.0696884987483	2.818382931264455e-05
2297.0364222993626	3.349654391578279e-05
2292.878308280623	3.981071705534977e-05
2288.5031189786023	4.731512589614803e-05
2283.865416664086	5.623413251903491e-05
2278.981211827273	6.683439175686148e-05
2274.043773354674	7.943282347242821e-05
2269.33300484843	9.440608762859246e-05
2264.61179295587	0.00011220184543019629
2259.9510713616637	0.0001333521432163324
2255.436198418953	0.00015848931924611142
2251.347959828034	0.00018836490894898024
2248.0326497502533	0.00022387211385683424
2245.2075928960066	0.0002660725059798809
2242.7122166478134	0.0003162277660168379
2240.300304016791	0.00037583740428844437
2237.9749368002967	0.0004466835921509635
2236.0522476122032	0.0005308844442309889
2233.4929669635508	0.000630957344480193
2229.6538175494197	0.0007498942093324559
2224.2878680708436	0.0008912509381337458
2218.16537851948	0.0010592537251772895
2210.6750938589075	0.0012589254117941673
2201.231853287793	0.0014962356560944345
2189.4073356705635	0.0017782794100389225
2175.572032553912	0.0021134890398366475
2160.9782025674235	0.002511886431509582
2144.858653624615	0.0029853826189179603
2127.4636268697705	0.0035481338923357567
2109.3533657855014	0.004216965034285822
2091.9574552513427	0.0050118723362727255
2074.6457023567173	0.005956621435290103
2057.1528671723904	0.00707945784384138
2039.6768054704005	0.008413951416451957
2022.6      	0.01        
2007.2120630663658	0.01188502227437019
1992.416345326852	0.014125375446227554
1978.5178802752691	0.016788040181225587
1965.7571858265221	0.01995262314968883
1954.3863763404618	0.023713737056616554
1944.9718725844518	0.02818382931264455
1936.748389428949	0.033496543915782793
1929.6956838489434	0.03981071705534969
1923.7123215680037	0.04731512589614813
1918.8531088209124	0.056234132519034905
1915.3221986324052	0.06683439175686148
1912.700660564968	0.07943282347242821
1910.9169283932135	0.09440608762859228
1909.8956069676628	0.11220184543019629
1909.7412252319975	0.1333521432163324
1910.2732152719445	0.1584893192461114
1911.2798078848673	0.18836490894898023
1912.6363221001768	0.22387211385683378
1914.3115739613943	0.26607250597988086
1916.2966848043193	0.3162277660168379
1918.377573068034	0.3758374042884443
1920.5431212759834	0.4466835921509634
1922.7555992958855	0.5308844442309879
1924.725538277169	0.630957344480193
1926.460096463536	0.7498942093324559
1927.9163103149517	0.8912509381337458
1929.041851939499	1.0592537251772898
1929.8182031526721	1.2589254117941662
1930.1284126223456	1.4962356560944328
1930.3794311131887	1.7782794100389228
1930.5385811923545	2.1134890398366473
1930.6      	2.511886431509582
1930.6      	2.9853826189179573
1930.6754950806996	3.548133892335753
1930.7534972685214	4.216965034285823
1930.8325019627657	5.011872336272725
1930.9124644626177	5.956621435290109
1930.991704858422	7.079457843841373
1931.0689490887507	8.413951416451948
1931.2      	10.0        
