# T(K)	P(bar)
922.4       	1e-08       
924.169612747368	1.1885022274370215e-08
926.1782724525538	1.4125375446227554e-08
928.3417138177451	1.6788040181225588e-08
930.6211695061386	1.9952623149688826e-08
933.0861701639559	2.3713737056616554e-08
935.6177350392758	2.818382931264461e-08
938.2958996873624	3.3496543915782795e-08
941.1521580755283	3.981071705534969e-08
944.2303628087717	4.731512589614813e-08
947.5220875729303	5.6234132519034905e-08
951.0328300692705	6.683439175686162e-08
954.9409611560267	7.94328234724282e-08
959.3064843390151	9.440608762859226e-08
964.1499102170453	1.1220184543019653e-07
969.4181162590131	1.333521432163324e-07
975.280841352483	1.584893192461114e-07
981.7164673811611	1.883649089489802e-07
988.7214571198474	2.2387211385683422e-07
996.2999774444022	2.6607250597988136e-07
1004.359688632828	3.162277660168379e-07
1013.0164196205886	3.7583740428844433e-07
1022.3037113194981	4.466835921509635e-07
1032.2393403104406	5.308844442309889e-07
1042.5618205723665	6.309573444801942e-07
1053.2915229497748	7.498942093324558e-07
1064.670639807988	8.912509381337459e-07
1076.7212606440864	1.0592537251772896e-06
1089.464532412229	1.2589254117941687e-06
1102.4933301385179	1.4962356560944327e-06
1116.1462460491916	1.7782794100389227e-06
1130.437520585577	2.1134890398366474e-06
1145.2925946471746	2.511886431509582e-06
1160.6210305446325	2.9853826189179636e-06
1175.69703581714	3.5481338923357534e-06
1191.199453704285	4.216965034285822e-06
1207.032894515889	5.011872336272725e-06
1223.1302859113543	5.95662143529011e-06
1239.2160862596897	7.079457843841388e-06
1255.0345631939178	8.413951416451948e-06
1271.1755232029118	1e-05       
1287.7302096031676	1.188502227437019e-05
1304.7978437487207	1.4125375446227555e-05
1321.7420738805267	1.678804018122562e-05
1338.8261725490854	1.9952623149688786e-05
1356.4277563677117	2.371373705661655e-05
1374.5600391357823	2.818382931264455e-05
1393.175503369429	3.349654391578279e-05
1411.1939974506322	3.981071705534977e-05
1429.5922947731804	4.731512589614803e-05
1448.293381157569	5.623413251903491e-05
1467.197322721993	6.683439175686148e-05
1485.9914433596273	7.943282347242821e-05
1504.0520797617605	9.440608762859246e-05
1522.2045971198993	0.00011220184543019629
1540.3667859807433	0.0001333521432163324
1558.5068337641449	0.00015848931924611142
1576.1963276671593	0.00018836490894898024
1593.5077830656955	0.00022387211385683424
1611.003337005955	0.0002660725059798809
1628.7354490296616	0.0003162277660168379
1646.7543662729506	0.00037583740428844437
1664.3496448777557	0.0004466835921509635
1682.2947197377764	0.0005308844442309889
1700.7199952698134	0.000630957344480193
1719.6741569842036	0.0007498942093324559
1739.2158237420024	0.0008912509381337458
1758.816605969158	0.0010592537251772895
1779.379565825123	0.0012589254117941673
1801.0738018620057	0.0014962356560944345
1824.0046093400088	0.0017782794100389225
1847.6432129507448	0.0021134890398366475
1871.8108177552965	0.002511886431509582
1897.2341928252426	0.0029853826189179603
1923.9329993332735	0.0035481338923357567
1951.9404551044481	0.004216965034285822
1980.4135822119279	0.0050118723362727255
2009.8511031272528	0.005956621435290103
2040.4813720708717	0.00707945784384138
2072.1963065047994	0.008413951416451957
2104.9      	0.01        
2136.8299691372913	0.01188502227437019
2169.450100093523	0.014125375446227554
2202.8275030842656	0.016788040181225587
2236.8333397287247	0.01995262314968883
2270.3891551351417	0.023713737056616554
2302.6579771641595	0.02818382931264455
2335.2085248644394	0.033496543915782793
2367.979920237951	0.03981071705534969
2400.9171044949435	0.04731512589614813
2432.972233745916	0.056234132519034905
2464.2303845184074	0.06683439175686148
2495.4592206693296	0.07943282347242821
2526.4744008137627	0.09440608762859228
2556.9929423368644	0.11220184543019629
2584.858845624438	0.1333521432163324
2611.846640773306	0.1584893192461114
2637.9236817117353	0.18836490894898023
2662.9565554167857	0.22387211385683378
2686.6494031682887	0.26607250597988086
2708.179937523106	0.3162277660168379
2728.7104123092113	0.3758374042884443
2748.276196423431	0.4466835921509634
2766.898153944616	0.5308844442309879
2783.8396291836543	0.630957344480193
2799.0090280664754	0.7498942093324559
2813.2451052804154	0.8912509381337458
2826.548705062237	1.0592537251772898
2838.914356402684	1.2589254117941662
2849.3839260041664	1.4962356560944328
2858.6183823011675	1.7782794100389228
2866.9423756583838	2.1134890398366473
2874.399438539625	2.511886431509582
2880.98023300869	2.9853826189179573
2886.1581704068794	3.548133892335753
2890.688852500157	4.216965034285823
2894.630086361687	5.011872336272725
2898.023791728995	5.956621435290109
2900.717965186352	7.079457843841373
2902.7237272187704	8.413951416451948
2904.8      	10.0        
