# T(K)	P(bar)
702.8       	1e-08       
702.9538793693363	1.1885022274370215e-08
703.2190033263042	1.4125375446227554e-08
703.5345305453922	1.6788040181225588e-08
703.8543444524049	1.9952623149688826e-08
704.1724090534137	2.3713737056616554e-08
704.6214063707774	2.818382931264461e-08
705.1391799374725	3.3496543915782795e-08
705.7491953336778	3.981071705534969e-08
706.4865235927736	4.731512589614813e-08
707.3486419833865	5.6234132519034905e-08
708.2650861050271	6.683439175686162e-08
709.3342342894415	7.94328234724282e-08
710.5919453017046	9.440608762859226e-08
712.0440912403075	1.1220184543019653e-07
713.5935636055921	1.333521432163324e-07
715.3212737321423	1.584893192461114e-07
717.2784258057134	1.883649089489802e-07
719.4804601431097	2.2387211385683422e-07
721.8736770877059	2.6607250597988136e-07
724.4802801287252	3.162277660168379e-07
727.3388065401962	3.7583740428844433e-07
730.4947933881173	4.466835921509635e-07
733.9907506481004	5.308844442309889e-07
737.7730334921648	6.309573444801942e-07
741.8175051167004	7.498942093324558e-07
746.2413942863844	8.912509381337459e-07
751.0962228006944	1.0592537251772896e-06
756.4322075362661	1.2589254117941687e-06
762.0935303578084	1.4962356560944327e-06
768.2446400560929	1.7782794100389227e-06
774.856563734839	2.1134890398366474e-06
781.9371544056628	2.511886431509582e-06
789.5612455588486	2.9853826189179636e-06
797.3250031506691	3.5481338923357534e-06
805.6846995373567	4.216965034285822e-06
814.6027296435772	5.011872336272725e-06
824.0580578271887	5.95662143529011e-06
833.9631073027646	7.079457843841388e-06
844.101279715108	8.413951416451948e-06
854.7170154686079	1e-05       
865.8242933153592	1.188502227437019e-05
877.4353758631711	1.4125375446227555e-05
889.1479773367696	1.678804018122562e-05
901.1596512111191	1.9952623149688786e-05
913.6979043521455	2.371373705661655e-05
926.8030591042552	2.818382931264455e-05
940.5083935743116	3.349654391578279e-05
954.1377673024014	3.981071705534977e-05
968.3758419115543	4.731512589614803e-05
983.2186885327142	5.623413251903491e-05
998.6786519793246	6.683439175686148e-05
1014.6855089630725	7.943282347242821e-05
1030.7623276504612	9.440608762859246e-05
1047.5073488096025	0.00011220184543019629
1064.9089288355385	0.0001333521432163324
1082.9692685923628	0.00015848931924611142
1101.209102305693	0.00018836490894898024
1119.5185855899992	0.00022387211385683424
1138.3300787239511	0.0002660725059798809
1157.5710451527134	0.0003162277660168379
1177.110860663436	0.00037583740428844437
1196.0238473575876	0.0004466835921509635
1214.8221011069143	0.0005308844442309889
1233.657368131126	0.000630957344480193
1252.4517633743894	0.0007498942093324559
1270.952275755748	0.0008912509381337458
1288.3653056824692	0.0010592537251772895
1305.7800881088706	0.0012589254117941673
1323.3053176461383	0.0014962356560944345
1341.0733836483012	0.0017782794100389225
1358.9406893875193	0.0021134890398366475
1376.9308931896487	0.002511886431509582
1395.9141384309976	0.0029853826189179603
1416.0262782279237	0.0035481338923357567
1437.3820514919419	0.004216965034285822
1459.458476071166	0.0050118723362727255
1482.591470350993	0.005956621435290103
1507.0127719459797	0.00707945784384138
1532.6181801639993	0.008413951416451957
1559.2      	0.01        
1585.3594927871782	0.01188502227437019
1612.0342860621658	0.014125375446227554
1639.0350963583342	0.016788040181225587
1666.178520115119	0.01995262314968883
1692.975462750101	0.023713737056616554
1718.8285223684054	0.02818382931264455
1744.596094230861	0.033496543915782793
1770.094148308313	0.03981071705534969
1795.214794816498	0.04731512589614813
1819.2757353545142	0.056234132519034905
1842.8821813273528	0.06683439175686148
1866.4155566449788	0.07943282347242821
1889.81467430524	0.09440608762859228
1913.1501687859054	0.11220184543019629
1935.998665664359	0.1333521432163324
1959.4111012127223	0.1584893192461114
1983.4613017836932	0.18836490894898023
2008.256938869377	0.22387211385683378
2033.94413407471	0.26607250597988086
2059.8110036250496	0.3162277660168379
2086.70640743496	0.3758374042884443
2114.760576587783	0.4466835921509634
2143.993093550942	0.5308844442309879
2173.2269880331905	0.630957344480193
2202.188007901183	0.7498942093324559
2231.588523006681	0.8912509381337458
2261.321077343318	1.0592537251772898
2291.3156471393463	1.2589254117941662
2320.552889656079	1.4962356560944328
2350.0279410038925	1.7782794100389228
2380.269502633535	2.1134890398366473
2411.487477683029	2.511886431509582
2443.90992848184	2.9853826189179573
2476.1324388131716	3.548133892335753
2509.831803612384	4.216965034285823
2545.1834048349497	5.011872336272725
2582.3452643694923	5.956621435290109
2620.7768563347263	7.079457843841373
2663.5493878779603	8.413951416451948
2718.8      	10.0        
