# T(K)	P(bar)
946.0       	1e-08       
949.7700445487404	1.1885022274370215e-08
953.8017940735314	1.4125375446227554e-08
958.0497949991424	1.6788040181225588e-08
962.4879945598722	1.9952623149688826e-08
967.0999312744981	2.3713737056616554e-08
971.7842981029038	2.818382931264461e-08
976.6526194372523	3.3496543915782795e-08
981.7551208173788	3.981071705534969e-08
987.1742020247699	4.731512589614813e-08
992.8955331624741	5.6234132519034905e-08
998.8730596826762	6.683439175686162e-08
1005.2939943068352	7.94328234724282e-08
1012.1161770305556	9.440608762859226e-08
1019.2028197054142	1.1220184543019653e-07
1026.3303925857238	1.333521432163324e-07
1033.599988296582	1.584893192461114e-07
1041.1150853020072	1.883649089489802e-07
1048.9015338103657	2.2387211385683422e-07
1056.8789236256864	2.6607250597988136e-07
1064.8137898017264	3.162277660168379e-07
1073.1102922721366	3.7583740428844433e-07
1081.742373629791	4.466835921509635e-07
1090.675756761074	5.308844442309889e-07
1099.7374760749783	6.309573444801942e-07
1108.8314264862388	7.498942093324558e-07
1118.2170967568225	8.912509381337459e-07
1127.9231492437393	1.0592537251772896e-06
1138.00070403818	1.2589254117941687e-06
1148.237616537407	1.4962356560944327e-06
1158.7940208356138	1.7782794100389227e-06
1169.7399481219804	2.1134890398366474e-06
1181.069732033966	2.511886431509582e-06
1192.7867563325462	2.9853826189179636e-06
1204.1732719435547	3.5481338923357534e-06
1216.0920766208208	4.216965034285822e-06
1228.662823856327	5.011872336272725e-06
1241.9937454206815	5.95662143529011e-06
1255.9400550822925	7.079457843841388e-06
1270.2245305076524	8.413951416451948e-06
1285.161601455869	1e-05       
1300.6052881236835	1.188502227437019e-05
1316.4219161854217	1.4125375446227555e-05
1332.5072222091635	1.678804018122562e-05
1349.1133632153958	1.9952623149688786e-05
1366.4044820544823	2.371373705661655e-05
1384.318826675732	2.818382931264455e-05
1402.7707939101224	3.349654391578279e-05
1420.4812795454932	3.981071705534977e-05
1439.1848941968608	4.731512589614803e-05
1458.7882650380698	5.623413251903491e-05
1479.1233443316703	6.683439175686148e-05
1499.6694592660333	7.943282347242821e-05
1518.9975211129918	9.440608762859246e-05
1538.8496833882866	0.00011220184543019629
1559.3082145944295	0.0001333521432163324
1580.3190079052342	0.00015848931924611142
1600.7602008598285	0.00018836490894898024
1620.1342161448094	0.00022387211385683424
1639.765205943949	0.0002660725059798809
1659.8920107170673	0.0003162277660168379
1680.524153461197	0.00037583740428844437
1699.747189117548	0.0004466835921509635
1717.6845342284469	0.0005308844442309889
1735.5957581019368	0.000630957344480193
1753.9859777758993	0.0007498942093324559
1772.6466677536332	0.0008912509381337458
1789.6943918399368	0.0010592537251772895
1805.5195364554995	0.0012589254117941673
1820.549223741581	0.0014962356560944345
1835.1585043695036	0.0017782794100389225
1848.756630861298	0.0021134890398366475
1860.345048285805	0.002511886431509582
1871.175267229402	0.0029853826189179603
1881.1428043831224	0.0035481338923357567
1889.9472230365914	0.004216965034285822
1896.1879084300115	0.0050118723362727255
1900.745191816565	0.005956621435290103
1904.5136338359785	0.00707945784384138
1907.8001651087998	0.008413951416451957
1910.7      	0.01        
1912.931250855377	0.01188502227437019
1916.0637874209228	0.014125375446227554
1920.1852234535786	0.016788040181225587
1925.2646140301883	0.01995262314968883
1930.9102606980925	0.023713737056616554
1937.4401579811429	0.02818382931264455
1945.1846076156507	0.033496543915782793
1954.0502928194455	0.03981071705534969
1963.8068199886375	0.04731512589614813
1973.8387430794064	0.056234132519034905
1984.9723047865816	0.06683439175686148
1997.0228834680797	0.07943282347242821
2009.8146066712754	0.09440608762859228
2023.1975694265166	0.11220184543019629
2037.1691165042196	0.1333521432163324
2052.2496623845	0.1584893192461114
2068.201264510469	0.18836490894898023
2084.8272823541824	0.22387211385683378
2101.8988965589688	0.26607250597988086
2119.0677196678157	0.3162277660168379
2136.681818016435	0.3758374042884443
2154.7557505268624	0.4466835921509634
2173.292409409489	0.5308844442309879
2191.7310382743035	0.630957344480193
2209.498276824989	0.7498942093324559
2226.914958646533	0.8912509381337458
2243.688668402083	1.0592537251772898
2259.4872863530686	1.2589254117941662
2272.90384591645	1.4962356560944328
2284.493072690928	1.7782794100389228
2294.5982559284093	2.1134890398366473
2303.227439390568	2.511886431509582
2310.370008997237	2.9853826189179573
2316.0866359717775	3.548133892335753
2321.3238251853713	4.216965034285823
2326.2176158031716	5.011872336272725
2330.8481520561104	5.956621435290109
2334.96865263795	7.079457843841373
2338.4337599050364	8.413951416451948
2342.6      	10.0        
