# T(K)	P(bar)
1223.5      	1e-08       
1239.8881528343206	1.1885022274370215e-08
1249.7275748418458	1.4125375446227554e-08
1255.9188560899265	1.6788040181225588e-08
1260.7657195419608	1.9952623149688826e-08
1264.6620109043174	2.3713737056616554e-08
1268.3712509662193	2.818382931264461e-08
1272.1742595623073	3.3496543915782795e-08
1276.1397952612494	3.981071705534969e-08
1280.3326179638677	4.731512589614813e-08
1284.6432099169326	5.6234132519034905e-08
1289.0341589988786	6.683439175686162e-08
1293.5523725858404	7.94328234724282e-08
1298.228259077999	9.440608762859226e-08
1303.1410919689838	1.1220184543019653e-07
1308.099403537895	1.333521432163324e-07
1313.3063745124211	1.584893192461114e-07
1318.8091354819023	1.883649089489802e-07
1324.6011503577743	2.2387211385683422e-07
1330.584192719265	2.6607250597988136e-07
1336.590054412958	3.162277660168379e-07
1342.7816979793604	3.7583740428844433e-07
1349.1691408796655	4.466835921509635e-07
1355.7485896623402	5.308844442309889e-07
1362.2887870802017	6.309573444801942e-07
1368.7085457487951	7.498942093324558e-07
1375.2606291534967	8.912509381337459e-07
1381.9315562917927	1.0592537251772896e-06
1388.6868169942825	1.2589254117941687e-06
1395.2787682248454	1.4962356560944327e-06
1401.8838815403442	1.7782794100389227e-06
1408.6951449271933	2.1134890398366474e-06
1415.7640110622663	2.511886431509582e-06
1423.0670878511075	2.9853826189179636e-06
1430.2965375857711	3.5481338923357534e-06
1437.8427323150997	4.216965034285822e-06
1445.715200202093	5.011872336272725e-06
1453.9087685748384	5.95662143529011e-06
1462.2290101343222	7.079457843841388e-06
1470.6154506738392	8.413951416451948e-06
1479.1947224749772	1e-05       
1488.027565541326	1.188502227437019e-05
1497.1937881617646	1.4125375446227555e-05
1506.1734492915234	1.678804018122562e-05
1515.3448621418152	1.9952623149688786e-05
1524.8953382801599	2.371373705661655e-05
1534.878809903254	2.818382931264455e-05
1545.3624763460734	3.349654391578279e-05
1555.988767727296	3.981071705534977e-05
1567.1324166333804	4.731512589614803e-05
1578.8539549245065	5.623413251903491e-05
1591.185885416275	6.683439175686148e-05
1604.0072982241527	7.943282347242821e-05
1617.0703143568346	9.440608762859246e-05
1630.8148176816537	0.00011220184543019629
1645.2675002218523	0.0001333521432163324
1660.4749329736214	0.00015848931924611142
1676.1203075811763	0.00018836490894898024
1692.196980541392	0.00022387211385683424
1708.9422606739563	0.0002660725059798809
1726.473005700099	0.0003162277660168379
1745.0141838628763	0.00037583740428844437
1764.0046827975777	0.0004466835921509635
1784.0526576349025	0.0005308844442309889
1805.4391468902008	0.000630957344480193
1828.3005890294994	0.0007498942093324559
1852.6475836785603	0.0008912509381337458
1877.757765301626	0.0010592537251772895
1904.5612207852362	0.0012589254117941673
1933.4296257636345	0.0014962356560944345
1964.70516769727	0.0017782794100389225
1998.068012927138	0.0021134890398366475
2033.288212651402	0.002511886431509582
2071.1203263654706	0.0029853826189179603
2111.5540851838164	0.0035481338923357567
2154.569693271841	0.004216965034285822
2198.800550997707	0.0050118723362727255
2243.797109982215	0.005956621435290103
2289.155463263807	0.00707945784384138
2333.749639231599	0.008413951416451957
2376.2      	0.01        
2412.2847121093723	0.01188502227437019
2444.4528243146647	0.014125375446227554
2472.761545722329	0.016788040181225587
2497.4818366504373	0.01995262314968883
2519.0307133687757	0.023713737056616554
2537.2646140651896	0.02818382931264455
2554.133126740265	0.033496543915782793
2569.8777252664154	0.03981071705534969
2584.792243265538	0.04731512589614813
2598.664511914492	0.056234132519034905
2612.066234172055	0.06683439175686148
2625.3611417557822	0.07943282347242821
2638.6146066712754	0.09440608762859228
2651.9690147163246	0.11220184543019629
2664.937080512204	0.1333521432163324
2678.1446596230558	0.1584893192461114
2691.6329347623223	0.18836490894898023
2705.4507301824506	0.22387211385683378
2719.650484053722	0.26607250597988086
2733.676793630235	0.3162277660168379
2747.834841678303	0.3758374042884443
2762.02973092318	0.4466835921509634
2776.138075212022	0.5308844442309879
2789.53366028475	0.630957344480193
2802.151619413311	0.7498942093324559
2814.2706398079877	0.8912509381337458
2825.861741959038	1.0592537251772898
2836.9460945801634	1.2589254117941662
2846.25237867037	1.4962356560944328
2854.0221748799104	1.7782794100389228
2860.3849398877496	2.1134890398366473
2865.377720120756	2.511886431509582
2869.229892492892	2.9853826189179573
2871.7158425823905	3.548133892335753
2873.5699453704283	4.216965034285823
2874.8575215904216	5.011872336272725
2875.674786775705	5.956621435290109
2876.1502291505326	7.079457843841373
2876.3378981775018	8.413951416451948
2876.6      	10.0        
