# T(K)	P(bar)
977.4       	1e-08       
988.1715558535441	1.1885022274370215e-08
997.9153489575516	1.4125375446227554e-08
1006.9995899982846	1.6788040181225588e-08
1015.7265418756306	1.9952623149688826e-08
1024.0757376521085	2.3713737056616554e-08
1032.1043770934753	2.818382931264461e-08
1040.1907905085236	3.3496543915782795e-08
1048.35190215209	3.981071705534969e-08
1056.618041240768	4.731512589614813e-08
1064.7689787520178	5.6234132519034905e-08
1072.7669890681493	6.683439175686162e-08
1080.8127931682022	7.94328234724282e-08
1088.9427981153094	9.440608762859226e-08
1097.2248653255679	1.1220184543019653e-07
1105.1271743885197	1.333521432163324e-07
1113.0595617686317	1.584893192461114e-07
1121.0600372732242	1.883649089489802e-07
1129.1495798246765	2.2387211385683422e-07
1137.366291334457	2.6607250597988136e-07
1145.2408403861757	3.162277660168379e-07
1153.2551861484264	3.7583740428844433e-07
1161.4617047849374	4.466835921509635e-07
1169.8939649863903	5.308844442309889e-07
1178.325303826284	6.309573444801942e-07
1186.8004823176802	7.498942093324558e-07
1195.6932497834	8.912509381337459e-07
1205.2924456013886	1.0592537251772896e-06
1215.9553134961961	1.2589254117941687e-06
1227.1228544044438	1.4962356560944327e-06
1238.9706075147456	1.7782794100389227e-06
1251.7202215079055	2.1134890398366474e-06
1265.4097362886837	2.511886431509582e-06
1279.9356362752799	2.9853826189179636e-06
1294.99703581714	3.5481338923357534e-06
1311.1949181950633	4.216965034285822e-06
1328.4129416222638	5.011872336272725e-06
1346.5416131777322	5.95662143529011e-06
1365.2423465876195	7.079457843841388e-06
1384.0925267439507	8.413951416451948e-06
1403.8367606915378	1e-05       
1424.411204411492	1.188502227437019e-05
1445.6636765537078	1.4125375446227555e-05
1466.7463592061852	1.678804018122562e-05
1488.254760819886	1.9952623149688786e-05
1510.657608383278	2.371373705661655e-05
1534.0436876975843	2.818382931264455e-05
1558.4661604610785	3.349654391578279e-05
1582.4138171245584	3.981071705534977e-05
1607.4278303851631	4.731512589614803e-05
1633.45770493225	5.623413251903491e-05
1660.3977924422272	6.683439175686148e-05
1687.7926123547113	7.943282347242821e-05
1715.1144799804486	9.440608762859246e-05
1743.3284560677203	0.00011220184543019629
1772.2167861450782	0.0001333521432163324
1801.6358036790675	0.00015848931924611142
1831.0396735445227	0.00018836490894898024
1859.7061522477206	0.00022387211385683424
1888.2645799199272	0.0002660725059798809
1916.647065220586	0.0003162277660168379
1944.790009416422	0.00037583740428844437
1970.214024316757	0.0004466835921509635
1994.255172760975	0.0005308844442309889
2017.1896554449495	0.000630957344480193
2038.8425857872232	0.0007498942093324559
2058.7046077377727	0.0008912509381337458
2075.571843534417	0.0010592537251772895
2091.3195364554995	0.0012589254117941673
2106.19299483556	0.0014962356560944345
2120.4129577562594	0.0017782794100389225
2133.6948487482446	0.0021134890398366475
2146.192195741596	0.002511886431509582
2158.717935526325	0.0029853826189179603
2171.259620390778	0.0035481338923357567
2183.7664946333957	0.004216965034285822
2195.8578225831475	0.0050118723362727255
2207.829425278321	0.005956621435290103
2219.737940501414	0.00707945784384138
2231.4812114043993	0.008413951416451957
2243.0      	0.01        
2253.309917745535	0.01188502227437019
2263.189103115432	0.014125375446227554
2272.566855270981	0.016788040181225587
2281.385783536327	0.01995262314968883
2289.4964308620483	0.023713737056616554
2296.521095561661	0.02818382931264455
2303.0278878657605	0.033496543915782793
2309.010497558196	0.03981071705534969
2314.471946869674	0.04731512589614813
2319.1744108184716	0.056234132519034905
2323.315373121784	0.06683439175686148
2327.0604205823615	0.07943282347242821
2330.3621158644255	0.09440608762859228
2333.163698968889	0.11220184543019629
2335.402234136035	0.1333521432163324
2337.2037520710833	0.1584893192461114
2338.6435698920627	0.18836490894898023
2339.7601533810366	0.22387211385683378
2340.5578923625685	0.26607250597988086
2341.0376964933043	0.3162277660168379
2341.3530636742257	0.3758374042884443
2341.5301114741424	0.4466835921509634
2341.6      	0.5308844442309879
2341.6      	0.630957344480193
2341.6      	0.7498942093324559
2341.6      	0.8912509381337458
2341.6      	1.0592537251772898
2341.5954492118317	1.2589254117941662
2341.5178968444134	1.4962356560944328
2341.4401896289373	1.7782794100389228
2341.4      	2.1134890398366473
2341.381714164151	2.511886431509582
2341.301460573065	2.9853826189179573
2341.2245049193	3.548133892335753
2341.1465027314784	4.216965034285823
2341.034996074469	5.011872336272725
2340.875071074765	5.956621435290109
2340.7165902831557	7.079457843841373
2340.5621018224983	8.413951416451948
2340.4      	10.0        
