# T(K)	P(bar)
1201.8      	1e-08       
1211.263581214185	1.1885022274370215e-08
1219.4108306628782	1.4125375446227554e-08
1226.3897129987993	1.6788040181225588e-08
1232.3151667860745	1.9952623149688826e-08
1237.0861358012048	2.3713737056616554e-08
1240.8712509662193	2.818382931264461e-08
1244.2381710712712	3.3496543915782795e-08
1247.3244697051196	3.981071705534969e-08
1250.2910339029656	4.731512589614813e-08
1253.190886671391	5.6234132519034905e-08
1256.250287016757	6.683439175686162e-08
1259.518138296399	7.94328234724282e-08
1263.0234127322285	9.440608762859226e-08
1266.812432662784	1.1220184543019653e-07
1270.7635871942598	1.333521432163324e-07
1274.844674252328	1.584893192461114e-07
1279.1655655898392	1.883649089489802e-07
1283.728889610012	2.2387211385683422e-07
1288.355775702898	2.6607250597988136e-07
1293.0499143485954	3.162277660168379e-07
1297.8122947092622	3.7583740428844433e-07
1302.757245819247	4.466835921509635e-07
1307.9952300848088	5.308844442309889e-07
1313.3534641139001	6.309573444801942e-07
1318.8121294959572	7.498942093324558e-07
1324.5577046013361	8.912509381337459e-07
1330.6106303220433	1.0592537251772896e-06
1336.9868169942824	1.2589254117941687e-06
1343.5787682248454	1.4962356560944327e-06
1350.4231230245957	1.7782794100389227e-06
1357.4723073119023	2.1134890398366474e-06
1364.6457252264174	2.511886431509582e-06
1371.8685484241723	2.9853826189179636e-06
1378.7190621822729	3.5481338923357534e-06
1385.6077596298855	4.216965034285822e-06
1392.495168797843	5.011872336272725e-06
1399.3968727103409	5.95662143529011e-06
1406.370027541146	7.079457843841388e-06
1413.4433161650752	8.413951416451948e-06
1420.8808007279345	1e-05       
1428.7885472091161	1.188502227437019e-05
1437.273080644501	1.4125375446227555e-05
1446.018489744788	1.678804018122562e-05
1454.8946146748635	1.9952623149688786e-05
1464.0898810914437	2.371373705661655e-05
1473.5727476030036	2.818382931264455e-05
1483.2401064143676	3.349654391578279e-05
1492.4033576778857	3.981071705534977e-05
1501.6741902025674	4.731512589614803e-05
1511.344132519035	5.623413251903491e-05
1521.6154063143688	6.683439175686148e-05
1532.4459165123278	7.943282347242821e-05
1543.6521523299873	9.440608762859246e-05
1555.6191417654727	0.00011220184543019629
1568.360000197202	0.0001333521432163324
1581.843032183098	0.00015848931924611142
1595.4442874951935	0.00018836490894898024
1609.2452608464553	0.00022387211385683424
1623.7674171799617	0.0002660725059798809
1639.0852223479123	0.0003162277660168379
1655.194548683025	0.00037583740428844437
1671.3946069579338	0.0004466835921509635
1688.1743487191175	0.0005308844442309889
1705.6462666566856	0.000630957344480193
1723.854406578919	0.0007498942093324559
1742.8354517494038	0.0008912509381337458
1762.1940576636384	0.0010592537251772895
1782.679565825123	0.0012589254117941673
1804.4987849868228	0.0014962356560944345
1827.8184758731195	0.0017782794100389225
1852.2476682333784	0.0021134890398366475
1877.593271990486	0.002511886431509582
1904.7768611221659	0.0029853826189179603
1934.0244331589365	0.0035481338923357567
1965.5870529578062	0.004216965034285822
1998.896711245187	0.0050118723362727255
2034.5556560406117	0.005956621435290103
2072.8252345853284	0.00707945784384138
2113.799721785999	0.008413951416451957
2157.7      	0.01        
2202.248077422871	0.01188502227437019
2248.231495619334	0.014125375446227554
2294.740561718212	0.016788040181225587
2340.5142260567604	0.01995262314968883
2382.737301840664	0.023713737056616554
2418.98875934012	0.02818382931264455
2450.9218995163865	0.033496543915782793
2478.5065111225917	0.03981071705534969
2502.24510310192	0.04731512589614813
2522.622446880044	0.056234132519034905
2540.162821416744	0.06683439175686148
2556.260481190814	0.07943282347242821
2571.254128800095	0.09440608762859228
2585.466818200156	0.11220184543019629
2598.3576931282028	0.1333521432163324
2611.028765878306	0.1584893192461114
2623.516888884651	0.18836490894898023
2635.866362067963	0.22387211385683378
2648.151542383557	0.26607250597988086
2659.888311163713	0.3162277660168379
2671.6531837113007	0.3758374042884443
2683.4564981730546	0.4466835921509634
2695.292699887972	0.5308844442309879
2706.797143538668	0.630957344480193
2717.890627012984	0.7498942093324559
2728.743868282405	0.8912509381337458
2739.223149243739	1.0592537251772898
2749.191485122147	1.2589254117941662
2757.5671408033327	1.4962356560944328
2764.70350228247	1.7782794100389228
2770.746358695395	2.1134890398366473
2775.7142917924543	2.511886431509582
2779.7269713467626	2.9853826189179573
2782.517822905189	3.548133892335753
2784.6839344445143	4.216965034285823
2786.2875294414844	5.011872336272725
2787.412180163558	5.956621435290109
2788.1253437257988	7.079457843841373
2788.4757963550032	8.413951416451948
2788.9      	10.0        
