# T(K)	P(bar)
2547.5      	1e-08       
2519.417015096117	1.1885022274370215e-08
2495.615016327126	1.4125375446227554e-08
2474.895432549166	1.6788040181225588e-08
2456.382777379751	1.9952623149688826e-08
2440.479547329317	2.3713737056616554e-08
2426.9494496425846	2.818382931264461e-08
2414.483404205951	3.3496543915782795e-08
2403.017446735651	3.981071705534969e-08
2392.456106260652	4.731512589614813e-08
2383.0511783630564	5.6234132519034905e-08
2374.3229535284995	6.683439175686162e-08
2366.0294891177605	7.94328234724282e-08
2358.174949274526	9.440608762859226e-08
2350.7104076666783	1.1220184543019653e-07
2344.047676495954	1.333521432163324e-07
2337.761711963511	1.584893192461114e-07
2331.7546265252936	1.883649089489802e-07
2325.9949416708478	2.2387211385683422e-07
2320.4905426982764	2.6607250597988136e-07
2315.6041868203033	3.162277660168379e-07
2310.8897477402215	3.7583740428844433e-07
2306.3438689221757	4.466835921509635e-07
2301.978577436393	5.308844442309889e-07
2297.959901914575	6.309573444801942e-07
2294.2143349886487	7.498942093324558e-07
2290.4958384498295	8.912509381337459e-07
2286.811666272254	1.0592537251772896e-06
2283.213417685111	1.2589254117941687e-06
2280.033770620957	1.4962356560944327e-06
2277.0272058996106	1.7782794100389227e-06
2274.111077075239	2.1134890398366474e-06
2271.2782815811315	2.511886431509582e-06
2268.5496594842016	2.9853826189179636e-06
2266.0086623369098	3.5481338923357534e-06
2263.488087407314	4.216965034285822e-06
2260.992439154266	5.011872336272725e-06
2258.5260661214747	5.95662143529011e-06
2256.1488542473367	7.079457843841388e-06
2253.8315273374756	8.413951416451948e-06
2251.5777070063696	1e-05       
2249.3563874109022	1.188502227437019e-05
2247.120534850384	1.4125375446227555e-05
2245.09035059496	1.678804018122562e-05
2243.0733914648135	1.9952623149688786e-05
2241.1138054941625	2.371373705661655e-05
2239.205450479399	2.818382931264455e-05
2237.272920608988	3.349654391578279e-05
2235.501872045451	3.981071705534977e-05
2233.7661160970047	4.731512589614803e-05
2231.995157102852	5.623413251903491e-05
2230.1591592262466	6.683439175686148e-05
2228.3275288251207	7.943282347242821e-05
2226.481837973153	9.440608762859246e-05
2224.6047171823484	0.00011220184543019629
2222.647857112338	0.0001333521432163324
2220.5502606871287	0.00015848931924611142
2218.3489014458646	0.00018836490894898024
2216.048280305063	0.00022387211385683424
2213.6075928960067	0.0002660725059798809
2210.9975860891154	0.0003162277660168379
2208.1737184212684	0.00037583740428844437
2205.2282532803756	0.0004466835921509635
2202.0388869440235	0.0005308844442309889
2198.618221240926	0.000630957344480193
2194.9446399622534	0.0007498942093324559
2190.9402000528685	0.0008912509381337458
2186.645764963636	0.0010592537251772895
2181.861596220866	0.0012589254117941673
2176.644041096907	0.0014962356560944345
2171.04600100167	0.0017782794100389225
2165.116585380248	0.0021134890398366475
2158.7171152652545	0.002511886431509582
2151.9498218470653	0.0029853826189179603
2144.8902214387126	0.0035481338923357567
2137.56333235609	0.004216965034285822
2130.074509883986	0.0050118723362727255
2122.4994566410683	0.005956621435290103
2115.153176479021	0.00707945784384138
2108.2829755976004	0.008413951416451957
2102.0      	0.01        
2096.460342703892	0.01188502227437019
2091.8434550948928	0.014125375446227554
2088.0883271824264	0.016788040181225587
2084.983727702153	0.01995262314968883
2081.9621139925703	0.023713737056616554
2079.312030565595	0.02818382931264455
2076.8948259733284	0.033496543915782793
2074.6247256285583	0.03981071705534969
2072.3482950028406	0.04731512589614813
2069.8403142301486	0.056234132519034905
2068.1886136670405	0.06683439175686148
2067.2463062842235	0.07943282347242821
2066.9      	0.09440608762859228
2066.9197686455177	0.11220184543019629
2067.614486456011	0.1333521432163324
2068.946430543889	0.1584893192461114
2070.48852186328	0.18836490894898023
2071.8601533810365	0.22387211385683378
2072.6578923625684	0.26607250597988086
2072.5541011688983	0.3162277660168379
2071.5816179546437	0.3758374042884443
2069.585875456736	0.4466835921509634
2066.4070096335454	0.5308844442309879
2061.8367511969673	0.630957344480193
2055.9569263354842	0.7498942093324559
2049.091676899659	0.8912509381337458
2041.1912582776097	1.0592537251772898
2032.0992959618204	1.2589254117941662
2021.862383462593	1.4962356560944328
2011.0667376801348	1.7782794100389228
1999.7285647238928	2.1134890398366473
1987.6645512490525	2.511886431509582
1974.342455128749	2.9853826189179573
1960.284400231956	3.548133892335753
1945.3680326383221	4.216965034285823
1929.6695995958141	5.011872336272725
1913.282462850323	5.956621435290109
1896.6419797313558	7.079457843841373
1874.4910697297578	8.413951416451948
1838.4      	10.0        
