# T(K)	P(bar)
1389.1      	1e-08       
1389.1769396846682	1.1885022274370215e-08
1389.309501663152	1.4125375446227554e-08
1389.4336326363482	1.6788040181225588e-08
1389.5407583393037	1.9952623149688826e-08
1389.7793067900602	2.3713737056616554e-08
1389.940468790259	2.818382931264461e-08
1390.1453628303452	3.3496543915782795e-08
1390.438441852043	3.981071705534969e-08
1390.839328905806	4.731512589614813e-08
1391.2312009015393	5.6234132519034905e-08
1391.6825430525137	6.683439175686162e-08
1392.2382582877021	7.94328234724282e-08
1392.917747389836	9.440608762859226e-08
1393.7264547441846	1.1220184543019653e-07
1394.6561381633553	1.333521432163324e-07
1395.761700260093	1.584893192461114e-07
1397.0885218632798	1.883649089489802e-07
1398.6203067620731	2.2387211385683422e-07
1400.2157847251372	2.6607250597988136e-07
1401.467190648812	3.162277660168379e-07
1402.9204244948403	3.7583740428844433e-07
1404.6527868535566	4.466835921509635e-07
1406.7067191550627	5.308844442309889e-07
1409.0706459326032	6.309573444801942e-07
1411.8556167795832	7.498942093324558e-07
1415.1146227608017	8.912509381337459e-07
1419.3413339643937	1.0592537251772896e-06
1425.2050201469544	1.2589254117941687e-06
1432.107180847191	1.4962356560944327e-06
1440.338951187979	1.7782794100389227e-06
1449.6612302366634	2.1134890398366474e-06
1460.069732033966	2.511886431509582e-06
1471.7867563325462	2.9853826189179636e-06
1486.4195604136414	3.5481338923357534e-06
1500.8900001394206	4.216965034285822e-06
1514.5028081542018	5.011872336272725e-06
1527.2812809580641	5.95662143529011e-06
1541.1483502238702	7.079457843841388e-06
1555.493479596403	8.413951416451948e-06
1570.1782529572338	1e-05       
1585.0662697914734	1.188502227437019e-05
1599.9320109437338	1.4125375446227555e-05
1612.737788554868	1.678804018122562e-05
1624.4591562772157	1.9952623149688786e-05
1635.09533828016	2.371373705661655e-05
1644.460623002503	2.818382931264455e-05
1652.477706078557	3.349654391578279e-05
1657.5598454347937	3.981071705534977e-05
1659.5608563195435	4.731512589614803e-05
1658.1103688501742	5.623413251903491e-05
1652.8957961312321	6.683439175686148e-05
1643.7376441256051	7.943282347242821e-05
1630.1421947141937	9.440608762859246e-05
1611.9514959073003	0.00011220184543019629
1589.022142460391	0.0001333521432163324
1561.9852897231956	0.00015848931924611142
1535.4117388822228	0.00018836490894898024
1509.6009687093679	0.00022387211385683424
1483.597289018067	0.0002660725059798809
1457.5177920198614	0.0003162277660168379
1431.686424170705	0.00037583740428844437
1408.0451908030154	0.0004466835921509635
1386.6715485753848	0.0005308844442309889
1366.992123314125	0.000630957344480193
1348.9272382467489	0.0007498942093324559
1332.6692122146455	0.0008912509381337458
1318.9696499743493	0.0010592537251772895
1306.679941260753	0.0012589254117941673
1296.4441760983711	0.0014962356560944345
1288.7712541880917	0.0017782794100389225
1283.7114861911448	0.0021134890398366475
1280.1909042429277	0.002511886431509582
1278.4318019860968	0.0029853826189179603
1278.431497093867	0.0035481338923357567
1279.8341669109775	0.004216965034285822
1281.7063725290034	0.0050118723362727255
1284.6104314052673	0.005956621435290103
1288.7505247791307	0.00707945784384138
1294.1170244023997	0.008413951416451957
1300.4      	0.01        
1307.55539067414	0.01188502227437019
1316.3796014522798	0.014125375446227554
1326.6422017250738	0.016788040181225587
1338.0922614175915	0.01995262314968883
1350.337748556426	0.023713737056616554
1364.3231287038407	0.02818382931264455
1379.9269438473925	0.033496543915782793
1397.0406368235786	0.03981071705534969
1415.715895132371	0.04731512589614813
1436.7986085028153	0.056234132519034905
1460.3922387307043	0.06683439175686148
1485.6108720817501	0.07943282347242821
1512.395356556124	0.09440608762859228
1541.289589048283	0.11220184543019629
1572.5518905204915	0.1333521432163324
1605.376292112028	0.1584893192461114
1639.6171928194558	0.18836490894898023
1675.375254923029	0.22387211385683378
1713.1083087494965	0.26607250597988086
1753.106645501937	0.3162277660168379
1794.8024825854247	0.3758374042884443
1838.282871416235	0.4466835921509634
1883.9877426787855	0.5308844442309879
1932.4482416183612	0.630957344480193
1981.2109573371963	0.7498942093324559
2030.4808716778016	0.8912509381337458
2080.430153740045	1.0592537251772898
2131.7716646737226	1.2589254117941662
2182.4133605979296	1.4962356560944328
2231.481481914296	1.7782794100389228
2277.9353993720224	2.1134890398366473
2320.86005956605	2.511886431509582
2360.184319198271	2.9853826189179573
2393.136399458769	3.548133892335753
2424.7849183344842	4.216965034285823
2455.5507458509346	5.011872336272725
2485.8367800937135	5.956621435290109
2515.314207333027	7.079457843841373
2543.6353664828	8.413951416451948
2577.7      	10.0        
