# T(K)	P(bar)
1216.5      	1e-08       
1216.576939684668	1.1885022274370215e-08
1216.7642524947282	1.4125375446227554e-08
1217.0008979090442	1.6788040181225588e-08
1217.254344452405	1.9952623149688826e-08
1217.5724090534136	2.3713737056616554e-08
1217.8809375805183	2.818382931264461e-08
1218.2907256606907	3.3496543915782795e-08
1218.7938185928604	3.981071705534969e-08
1219.3629262492898	4.731512589614813e-08
1219.989921442463	5.6234132519034905e-08
1220.8013289296082	6.683439175686162e-08
1221.7073874315533	7.94328234724282e-08
1222.7266210847538	9.440608762859226e-08
1223.9418866782921	1.1220184543019653e-07
1225.4138854253124	1.333521432163324e-07
1227.063827048136	1.584893192461114e-07
1228.905949820105	1.883649089489802e-07
1230.9804601431097	2.2387211385683422e-07
1233.373677087706	2.6607250597988136e-07
1235.9073307131746	3.162277660168379e-07
1238.738806540196	3.7583740428844433e-07
1241.8345704398325	4.466835921509635e-07
1245.1498547607587	5.308844442309889e-07
1248.6169473678176	6.309573444801942e-07
1252.0865609481418	7.498942093324558e-07
1255.5698533661173	8.912509381337459e-07
1258.9915929519464	1.0592537251772896e-06
1262.272929950385	1.2589254117941687e-06
1265.2199199122838	1.4962356560944327e-06
1267.9933629872007	1.7782794100389227e-06
1270.6731793476977	2.1134890398366474e-06
1273.3034325830197	2.511886431509582e-06
1275.9518010888632	2.9853826189179636e-06
1278.6423278244893	3.5481338923357534e-06
1281.532896203814	4.216965034285822e-06
1284.6975843989214	5.011872336272725e-06
1288.210758668258	5.95662143529011e-06
1292.0935380626836	7.079457843841388e-06
1296.2232507925444	8.413951416451948e-06
1300.7334849863514	1e-05       
1305.6528011028731	1.188502227437019e-05
1310.9900779085676	1.4125375446227555e-05
1316.534042606071	1.678804018122562e-05
1322.3547018720838	1.9952623149688786e-05
1328.487315019458	2.371373705661655e-05
1334.9103170920775	2.818382931264455e-05
1341.6000760102627	3.349654391578279e-05
1348.145255484204	3.981071705534977e-05
1354.9355356119827	4.731512589614803e-05
1361.9493852497096	5.623413251903491e-05
1369.1189056027856	6.683439175686148e-05
1376.206518894097	7.943282347242821e-05
1383.0715175162252	9.440608762859246e-05
1389.9827036647237	0.00011220184543019629
1396.887857243806	0.0001333521432163324
1403.767056460962	0.00015848931924611142
1410.5283741305586	0.00018836490894898024
1417.1949297921517	0.00022387211385683424
1423.8985813699828	0.0002660725059798809
1430.6487194978627	0.0003162277660168379
1437.4857951518668	0.00037583740428844437
1444.1518478391497	0.0004466835921509635
1450.8980199016662	0.0005308844442309889
1457.751438934211	0.000630957344480193
1464.722540867189	0.0007498942093324559
1471.8504439058943	0.0008912509381337458
1478.5539008600656	0.0010592537251772895
1485.33814263726	0.0012589254117941673
1492.2183829647693	0.0014962356560944345
1499.1792521847517	0.0017782794100389225
1505.978315430649	0.0021134890398366475
1512.550538124445	0.002511886431509582
1519.3501781529346	0.0029853826189179603
1526.435160743279	0.0035481338923357567
1533.81430649208	0.004216965034285822
1540.9910946945133	0.0050118723362727255
1548.378083290382	0.005956621435290103
1556.2047508164135	0.00707945784384138
1564.5199443571998	0.008413951416451957
1573.3      	0.01        
1581.840304998167	0.01188502227437019
1591.1343522838558	0.014125375446227554
1601.3749364523778	0.016788040181225587
1612.5971586258827	0.01995262314968883
1624.286032712952	0.023713737056616554
1636.7482064061196	0.02818382931264455
1650.709404034975	0.033496543915782793
1666.2145577858146	0.03981071705534969
1683.1776665424384	0.04731512589614813
1700.8902807495772	0.056234132519034905
1720.4493512580823	0.06683439175686148
1741.9772983572766	0.07943282347242821
1765.3501690849116	0.09440608762859228
1790.3446189811552	0.11220184543019629
1816.5123231764112	0.1333521432163324
1844.5370004803615	0.1584893192461114
1874.1878652224207	0.18836490894898023
1905.3502732843951	0.22387211385683378
1937.9777976290572	0.26607250597988086
1971.6518440112252	0.3162277660168379
2006.9697633813223	0.3758374042884443
2043.7728387434315	0.4466835921509634
2081.8381783965096	0.5308844442309879
2119.897399514908	0.630957344480193
2157.189386155653	0.7498942093324559
2194.396846107022	0.8912509381337458
2231.280078053261	1.0592537251772898
2267.711448370268	1.2589254117941662
2301.9895947691957	1.4962356560944328
2335.7978906702247	1.7782794100389228
2369.635587943005	2.1134890398366473
2403.553194400011	2.511886431509582
2437.5807170205444	2.9853826189179573
2469.6814486517724	3.548133892335753
2501.887377362306	4.216965034285823
2534.3908086594342	5.011872336272725
2567.4849321498236	5.956621435290109
2601.0828599709766	7.079457843841373
2641.1430170379335	8.413951416451948
2694.2      	10.0        
