# T(K)	P(bar)
1174.9      	1e-08       
1187.441168600912	1.1885022274370215e-08
1196.5655814944544	1.4125375446227554e-08
1203.2197539989706	1.6788040181225588e-08
1208.3064778812645	1.9952623149688826e-08
1212.4413176943776	2.3713737056616554e-08
1216.3819541516082	2.818382931264461e-08
1220.564985222998	3.3496543915782795e-08
1225.088990594927	3.981071705534969e-08
1230.0191415566412	4.731512589614813e-08
1235.1918519003189	5.6234132519034905e-08
1240.6905166301626	6.683439175686162e-08
1246.555736019133	7.94328234724282e-08
1252.785528596654	9.440608762859226e-08
1259.389592333322	1.1220184543019653e-07
1266.0523235040462	1.333521432163324e-07
1272.9702015605571	1.584893192461114e-07
1280.1701333307903	1.883649089489802e-07
1287.637472457951	2.2387211385683422e-07
1295.295766680659	2.6607250597988136e-07
1302.8490427239728	3.162277660168379e-07
1310.6531436989426	3.7583740428844433e-07
1318.6713703625105	4.466835921509635e-07
1326.8530690990488	5.308844442309889e-07
1334.969217701937	6.309573444801942e-07
1343.0022741912612	7.498942093324558e-07
1351.1560170471862	8.912509381337459e-07
1359.415260170791	1.0592537251772896e-06
1367.777832757643	1.2589254117941687e-06
1375.9208313365737	1.4962356560944327e-06
1384.1997097037276	1.7782794100389227e-06
1392.666768774283	2.1134890398366474e-06
1401.2748702717008	2.511886431509582e-06
1409.9422581090066	2.9853826189179636e-06
1418.479953957666	3.5481338923357534e-06
1427.245191342921	4.216965034285822e-06
1436.237725718046	5.011872336272725e-06
1445.4583421262487	5.95662143529011e-06
1454.7294684353876	7.079457843841388e-06
1463.9049415613474	8.413951416451948e-06
1473.40864422202	1e-05       
1483.2462566509394	1.188502227437019e-05
1493.3973257480816	1.4125375446227555e-05
1503.5482470252002	1.678804018122562e-05
1513.8832901428843	1.9952623149688786e-05
1524.6117098463083	2.371373705661655e-05
1535.7879033536294	2.818382931264455e-05
1547.4766047239928	3.349654391578279e-05
1559.026921442713	3.981071705534977e-05
1570.993272952924	4.731512589614803e-05
1583.4339002800364	5.623413251903491e-05
1596.3599812366563	6.683439175686148e-05
1609.5795745665175	7.943282347242821e-05
1622.8134945257384	9.440608762859246e-05
1636.5650142309182	0.00011220184543019629
1650.793928786238	0.0001333521432163324
1665.4946596230557	0.00015848931924611142
1680.43245447449	0.00018836490894898024
1695.4861780170882	0.00022387211385683424
1711.0460571219594	0.0002660725059798809
1727.260335688787	0.0003162277660168379
1744.3510430735103	0.00037583740428844437
1761.8688094377655	0.0004466835921509635
1780.26350317701	0.0005308844442309889
1799.8421982186942	0.000630957344480193
1820.7215874083613	0.0007498942093324559
1842.8260957081663	0.0008912509381337458
1865.4097339409113	0.0010592537251772895
1889.3790435413755	0.0012589254117941673
1914.836090922218	0.0014962356560944345
1941.887808538673	0.0017782794100389225
1970.2699446465463	0.0021134890398366475
1999.6112482548526	0.002511886431509582
2030.501950198633	0.0029853826189179603
2062.7589877087407	0.0035481338923357567
2096.164691805977	0.004216965034285822
2129.162315823686	0.0050118723362727255
2162.367684703894	0.005956621435290103
2196.0566344604367	0.00707945784384138
2230.0074909975992	0.008413951416451957
2264.0      	0.01        
2295.776089767955	0.01188502227437019
2327.474086788306	0.014125375446227554
2359.1521566301726	0.016788040181225587
2390.74423965708	0.01995262314968883
2421.437473654418	0.023713737056616554
2450.297429383329	0.02818382931264455
2478.6497225343146	0.033496543915782793
2506.386357568529	0.03981071705534969
2533.4327815339166	0.04731512589614813
2558.669338059132	0.056234132519034905
2582.7372100290286	0.06683439175686148
2606.4578389309413	0.07943282347242821
2629.9146743052397	0.09440608762859228
2653.2282036242195	0.11220184543019629
2675.304791824347	0.1333521432163324
2697.421992196028	0.1584893192461114
2719.6828759779796	0.18836490894898023
2742.0362486547124	0.22387211385683378
2764.1336184431516	0.26607250597988086
2785.142241029802	0.3162277660168379
2806.0716457813733	0.3758374042884443
2826.8988718028454	0.4466835921509634
2847.576440902527	0.5308844442309879
2867.433425833865	0.630957344480193
2886.460165162106	0.7498942093324559
2905.399885329591	0.8912509381337458
2924.16259460848	1.0592537251772898
2942.596622608798	1.2589254117941662
2959.5805910734252	1.4962356560944328
2975.7013156968264	1.7782794100389228
2991.076101777932	2.1134890398366473
3005.4805912434003	2.511886431509582
3018.5619265904456	2.9853826189179573
3028.916340813759	3.548133892335753
3037.763715926228	4.216965034285823
3045.0376472074213	5.011872336272725
3050.7107586682578	5.956621435290109
3054.593538062684	7.079457843841373
3056.930574485023	8.413951416451948
3059.2      	10.0        
