# T(K)	P(bar)
1153.7      	1e-08       
1161.778666890158	1.1885022274370215e-08
1168.9633223471176	1.4125375446227554e-08
1175.287917180711	1.6788040181225588e-08
1180.7608223336697	1.9952623149688826e-08
1185.2137267477913	2.3713737056616554e-08
1189.0414853613488	2.818382931264461e-08
1192.7773510087438	3.3496543915782795e-08
1196.584418520432	3.981071705534969e-08
1200.6326179638677	4.731512589614813e-08
1204.9432099169326	5.6234132519034905e-08
1209.5891877005545	6.683439175686162e-08
1214.675195445468	7.94328234724282e-08
1220.2113306847853	9.440608762859226e-08
1226.1763649612296	1.1220184543019653e-07
1232.3742544223685	1.333521432163324e-07
1238.9404148245324	1.584893192461114e-07
1245.897657345182	1.883649089489802e-07
1253.2214571198474	2.2387211385683422e-07
1260.7999774444022	2.6607250597988136e-07
1268.3490427239728	3.162277660168379e-07
1276.1531436989426	3.7583740428844433e-07
1284.2014818366529	4.466835921509635e-07
1292.4735170427195	5.308844442309889e-07
1300.7472607641107	6.309573444801942e-07
1308.935010233401	7.498942093324558e-07
1317.2903252312396	8.912509381337459e-07
1325.7878157526409	1.0592537251772896e-06
1334.386934333979	1.2589254117941687e-06
1342.6850376477464	1.4962356560944327e-06
1350.9997097037276	1.7782794100389227e-06
1359.4667687742829	2.1134890398366474e-06
1368.0748702717008	2.511886431509582e-06
1376.7422581090068	2.9853826189179636e-06
1385.1289637962666	3.5481338923357534e-06
1393.7916940743996	4.216965034285822e-06
1402.6727217925147	5.011872336272725e-06
1411.7334132010135	5.95662143529011e-06
1420.8460587185434	7.079457843841388e-06
1429.9359924725966	8.413951416451948e-06
1439.314194722475	1e-05       
1448.9665838735361	1.188502227437019e-05
1458.8697157250638	1.4125375446227555e-05
1468.7083009628864	1.678804018122562e-05
1478.7956045426706	1.9952623149688786e-05
1489.2473440953354	2.371373705661655e-05
1500.0436597434543	2.818382931264455e-05
1511.1671858053799	3.349654391578279e-05
1522.101485632435	3.981071705534977e-05
1533.5006735292434	4.731512589614803e-05
1545.3189617550654	5.623413251903491e-05
1557.5414279240463	6.683439175686148e-05
1570.1239324187336	7.943282347242821e-05
1582.6691837656708	9.440608762859246e-05
1595.6171762728277	0.00011220184543019629
1609.0335716328166	0.0001333521432163324
1622.987628488968	0.00015848931924611142
1636.981983665575	0.00018836490894898024
1651.2356047854425	0.00022387211385683424
1665.9674171799618	0.0002660725059798809
1681.2164440126935	0.0003162277660168379
1697.0679630875027	0.00037583740428844437
1712.6479234380129	0.0004466835921509635
1728.8055652798837	0.0005308844442309889
1745.87152093406	0.000630957344480193
1763.971513779674	0.0007498942093324559
1783.0326477483466	0.0008912509381337458
1802.5424232006512	0.0010592537251772895
1823.2882160613187	0.0012589254117941673
1845.4237681116397	0.0014962356560944345
1869.0298625264306	0.0017782794100389225
1893.5381137616416	0.0021134890398366475
1918.7579652110876	0.002511886431509582
1945.6927621152142	0.0029853826189179603
1974.3944647930384	0.0035481338923357567
2004.8305248949991	0.004216965034285822
2035.9559432946828	0.0050118723362727255
2067.788004155497	0.005956621435290103
2100.6573747120674	0.00707945784384138
2134.443634213199	0.008413951416451957
2169.0      	0.01        
2202.161004091982	0.01188502227437019
2235.423854251403	0.014125375446227554
2268.7248093571334	0.016788040181225587
2301.956720258409	0.01995262314968883
2334.478825711547	0.023713737056616554
2365.534226842087	0.02818382931264455
2396.5425307752403	0.033496543915782793
2427.3215807552833	0.03981071705534969
2457.663144342688	0.04731512589614813
2486.1914256320624	0.056234132519034905
2513.3874970457855	0.06683439175686148
2539.9531543677126	0.07943282347242821
2565.8808175188133	0.09440608762859228
2591.2677409152543	0.11220184543019629
2614.733764736369	0.1333521432163324
2638.02449357675	0.1584893192461114
2661.281493898826	0.18836490894898023
2684.5284327119566	0.22387211385683378
2707.5830892782337	0.26607250597988086
2729.6635328475127	0.3162277660168379
2751.7879853772456	0.3758374042884443
2773.9107668632637	0.4466835921509634
2795.9400244518934	0.5308844442309879
2817.0577703312533	0.630957344480193
2837.1893174570837	0.7498942093324559
2857.0028098817515	0.8912509381337458
2876.4318909661297	1.0592537251772898
2895.4239273378066	1.2589254117941662
2912.8732100069437	1.4962356560944328
2929.460177923204	1.7782794100389228
2945.3075889320585	2.1134890398366473
2960.226877930193	2.511886431509582
2973.950242005927	2.9853826189179573
2985.2222817821553	3.548133892335753
2995.1661749540494	4.216965034285823
3003.657678611671	5.011872336272725
3010.6101900701383	5.956621435290109
3015.7608157974378	7.079457843841373
3019.333759905036	8.413951416451948
3022.9      	10.0        
