# T(K)	P(bar)
1155.0      	1e-08       
1163.1556065748262	1.1885022274370215e-08
1170.3633223471174	1.4125375446227554e-08
1176.6879171807109	1.6788040181225588e-08
1182.1608223336698	1.9952623149688826e-08
1186.6137267477914	2.3713737056616554e-08
1190.441485361349	2.818382931264461e-08
1194.1773510087437	3.3496543915782795e-08
1197.984418520432	3.981071705534969e-08
1202.0326179638676	4.731512589614813e-08
1206.3432099169324	5.6234132519034905e-08
1210.9891877005543	6.683439175686162e-08
1216.0751954454681	7.94328234724282e-08
1221.633105423769	9.440608762859226e-08
1227.6763649612296	1.1220184543019653e-07
1233.8742544223685	1.333521432163324e-07
1240.4978615085388	1.584893192461114e-07
1247.497657345182	1.883649089489802e-07
1254.8214571198473	2.2387211385683422e-07
1262.399977444402	2.6607250597988136e-07
1269.9490427239728	3.162277660168379e-07
1277.8041649236845	3.7583740428844433e-07
1285.931593310795	4.466835921509635e-07
1294.2735170427195	5.308844442309889e-07
1302.5472607641107	6.309573444801942e-07
1310.735010233401	7.498942093324558e-07
1319.135094625924	8.912509381337459e-07
1327.7120009465907	1.0592537251772896e-06
1336.3914851221473	1.2589254117941687e-06
1344.767140803333	1.4962356560944327e-06
1353.1595200747904	1.7782794100389227e-06
1361.666768774283	2.1134890398366474e-06
1370.29315610755	2.511886431509582e-06
1379.0407975359421	2.9853826189179636e-06
1387.579953957666	3.5481338923357534e-06
1396.2916940743996	4.216965034285822e-06
1405.2052237552805	5.011872336272725e-06
1414.3458776636312	5.95662143529011e-06
1423.5377635769655	7.079457843841388e-06
1432.7049415613474	8.413951416451948e-06
1442.1614194722474	1e-05       
1451.8931414660037	1.188502227437019e-05
1461.8835207365726	1.4125375446227555e-05
1471.8782739940434	1.678804018122562e-05
1482.0581664094084	1.9952623149688786e-05
1492.5884355330784	2.371373705661655e-05
1503.4436597434542	2.818382931264455e-05
1514.5695405350332	3.349654391578279e-05
1525.6578445850046	3.981071705534977e-05
1537.1006735292433	4.731512589614803e-05
1548.9539549245067	5.623413251903491e-05
1561.2562470881226	6.683439175686148e-05
1573.9183876872066	7.943282347242821e-05
1586.5407738501228	9.440608762859246e-05
1599.5669797235632	0.00011220184543019629
1613.0335716328166	0.0001333521432163324
1627.0054670113161	0.00015848931924611142
1641.1570621337275	0.00018836490894898024
1655.4356047854426	0.00022387211385683424
1670.2109299019614	0.0002660725059798809
1685.5164440126935	0.0003162277660168379
1701.3679630875026	0.00037583740428844437
1716.9479234380128	0.0004466835921509635
1733.222761139692	0.0005308844442309889
1750.4462666566856	0.000630957344480193
1768.7057281811838	0.0007498942093324559
1787.9270397462317	0.0008912509381337458
1807.6649715061708	0.0010592537251772895
1828.6447037384658	0.0012589254117941673
1850.9862596740481	0.0014962356560944345
1874.764022486364	0.0017782794100389225
1899.5094503464318	0.0021134890398366475
1924.9609253801855	0.002511886431509582
1952.176861122166	0.0029853826189179603
1981.2213757029995	0.0035481338923357567
2012.052886046829	0.004216965034285822
2043.4903387161833	0.0050118723362727255
2075.6329242925963	0.005956621435290103
2108.816782510763	0.00707945784384138
2142.940879367199	0.008413951416451957
2177.9      	0.01        
2211.3687628306543	0.01188502227437019
2244.8881067461316	0.014125375446227554
2278.4593399025257	0.016788040181225587
2312.0110647108136	0.01995262314968883
2344.8512347649603	0.023713737056616554
2376.215164422605	0.02818382931264455
2407.4878936055857	0.033496543915782793
2438.5046458665092	0.03981071705534969
2469.0867416861715	0.04731512589614813
2497.850146172986	0.056234132519034905
2525.1512542212045	0.06683439175686148
2551.8377189396383	0.07943282347242821
2577.8808175188133	0.09440608762859228
2603.2677409152543	0.11220184543019629
2626.733764736369	0.1333521432163324
2649.9098505223615	0.1584893192461114
2672.936541927609	0.18836490894898023
2695.864371359542	0.22387211385683378
2718.599932333206	0.26607250597988086
2740.152886938657	0.3162277660168379
2761.5777731298253	0.3758374042884443
2782.8193176994146	0.4466835921509634
2803.7968888461974	0.5308844442309879
2823.8114688960386	0.630957344480193
2842.6610610988964	0.7498942093324559
2861.0521913827465	0.8912509381337458
2878.9481870871314	1.0592537251772898
2896.332911574446	1.2589254117941662
2912.2311468952153	1.4962356560944328
2927.323780873009	1.7782794100389228
2941.7517086620323	2.1134890398366473
2955.3343045566075	2.511886431509582
2967.773611174963	2.9853826189179573
2977.9653506523596	3.548133892335753
2986.870710463271	4.216965034285823
2994.4326589840152	5.011872336272725
3000.6229388318156	5.956621435290109
3005.2188817884826	7.079457843841373
3008.4579635500327	8.413951416451948
3011.7      	10.0        
