# T(K)	P(bar)
1040.2      	1e-08       
1040.3538793693365	1.1885022274370215e-08
1040.5095016631522	1.4125375446227554e-08
1040.667265272696	1.6788040181225588e-08
1040.8407583393036	1.9952623149688826e-08
1041.0793067900602	2.3713737056616554e-08
1041.3107031853888	2.818382931264461e-08
1041.593817107127	3.3496543915782795e-08
1041.9661302224517	3.981071705534969e-08
1042.4550604681287	4.731512589614813e-08
1043.003681262155	5.6234132519034905e-08
1043.6100574033514	6.683439175686162e-08
1044.3228228596276	7.94328234724282e-08
1045.1830716067866	9.440608762859226e-08
1046.2330684302306	1.1220184543019653e-07
1047.3951727041942	1.333521432163324e-07
1048.7914869961176	1.584893192461114e-07
1050.4697118273007	1.883649089489802e-07
1052.4484294669023	2.2387211385683422e-07
1054.6820986151922	2.6607250597988136e-07
1057.2802801287253	3.162277660168379e-07
1060.2918702144223	3.7583740428844433e-07
1063.7754622329708	4.466835921509635e-07
1067.7827663946193	5.308844442309889e-07
1072.2742272719458	6.309573444801942e-07
1077.2802893906082	7.498942093324558e-07
1082.8129352066517	8.912509381337459e-07
1088.859000709943	1.0592537251772896e-06
1095.3868169942825	1.2589254117941687e-06
1101.9787682248455	1.4962356560944327e-06
1108.5838815403442	1.7782794100389227e-06
1115.1636577730667	2.1134890398366474e-06
1121.5897235245302	2.511886431509582e-06
1127.6889964470788	2.9853826189179636e-06
1133.009160568279	3.5481338923357534e-06
1137.963333379807	4.216965034285822e-06
1142.5551059893432	5.011872336272725e-06
1146.7982942056406	5.95662143529011e-06
1150.6018332042615	7.079457843841388e-06
1153.8958617275343	8.413951416451948e-06
1156.7584167424932	1e-05       
1159.1373822192265	1.188502227437019e-05
1160.9966350805628	1.4125375446227555e-05
1162.0898112180985	1.678804018122562e-05
1162.8630568006415	1.9952623149688786e-05
1163.4465486264594	2.371373705661655e-05
1163.9030311501251	2.818382931264455e-05
1164.3082415537863	3.349654391578279e-05
1164.8472563339933	3.981071705534977e-05
1165.3925994236804	4.731512589614803e-05
1165.839972677765	5.623413251903491e-05
1166.1148191640762	6.683439175686148e-05
1166.1944552684731	7.943282347242821e-05
1165.7704594932882	9.440608762859246e-05
1164.803144788232	0.00011220184543019629
1163.2767856849403	0.0001333521432163324
1161.1521488142148	0.00015848931924611142
1158.0859698710256	0.00018836490894898024
1153.6965606101267	0.00022387211385683424
1147.9884440740168	0.0002660725059798809
1140.938610490825	0.0003162277660168379
1132.594569668282	0.00037583740428844437
1123.1380763212062	0.0004466835921509635
1112.2447022339857	0.0005308844442309889
1101.0799180001507	0.000630957344480193
1090.5668863146927	0.0007498942093324559
1081.5168521194826	0.0008912509381337458
1073.3366265383108	0.0010592537251772895
1065.6445568903482	0.0012589254117941673
1059.0065326593156	0.0014962356560944345
1053.887600601002	0.0017782794100389225
1050.329951228149	0.0021134890398366475
1047.3291711914246	0.002511886431509582
1046.0079504965242	0.0029853826189179603
1046.6868476417571	0.0035481338923357567
1049.2459726701252	0.004216965034285822
1052.6783496365065	0.0050118723362727255
1057.7473324335117	0.005956621435290103
1064.6844547157614	0.00707945784384138
1073.5672720655998	0.008413951416451957
1084.2      	0.01        
1096.5872892315756	0.01188502227437019
1112.8379404309187	0.014125375446227554
1132.2471791776231	0.016788040181225587
1154.0535589124618	0.01995262314968883
1177.192758635844	0.023713737056616554
1203.7118039002194	0.02818382931264455
1233.4817107127126	0.033496543915782793
1265.258413274682	0.03981071705534969
1297.6171044949438	0.04731512589614813
1329.6722337459162	0.056234132519034905
1360.6115986413126	0.06683439175686148
1389.5873886571542	0.07943282347242821
1415.6622511323549	0.09440608762859228
1438.3710942038358	0.11220184543019629
1458.4407198403153	0.1333521432163324
1478.3596679073892	0.1584893192461114
1498.2594982010496	0.18836490894898023
1518.3639879069506	0.22387211385683378
1539.1052014267846	0.26607250597988086
1562.6684199896288	0.3162277660168379
1589.31661968238	0.3758374042884443
1619.3360388207536	0.4466835921509634
1653.27109003037	0.5308844442309879
1692.354679419036	0.630957344480193
1735.6961400308676	0.7498942093324559
1783.2390268352774	0.8912509381337458
1834.4524503343423	1.0592537251772898
1888.4899851660912	1.2589254117941662
1941.1480426431765	1.4962356560944328
1989.8441367194164	1.7782794100389228
2034.1535704854891	2.1134890398366473
2073.408051907558	2.511886431509582
2107.6763353013507	2.9853826189179573
2137.2146159079825	3.548133892335753
2164.735574028763	4.216965034285823
2191.8431850052007	5.011872336272725
2220.0617090189485	5.956621435290109
2249.6976170498715	7.079457843841373
2282.379159074101	8.413951416451948
2332.4      	10.0        
