# T(K)	P(bar)
898.4       	1e-08       
898.8616381080091	1.1885022274370215e-08
899.4380066526085	1.4125375446227554e-08
900.0690610907843	1.6788040181225588e-08
900.7358611310125	1.9952623149688826e-08
901.5310226335341	2.3713737056616554e-08
902.4428127415548	2.818382931264461e-08
903.4299055981631	3.3496543915782795e-08
904.5153255561296	3.981071705534969e-08
905.7258524985797	4.731512589614813e-08
906.9798428849259	5.6234132519034905e-08
908.3476291575406	6.683439175686162e-08
909.8456457192553	7.94328234724282e-08
911.4790442576389	9.440608762859226e-08
913.2529094883689	1.1220184543019653e-07
915.1122763267106	1.333521432163324e-07
917.1510604681672	1.584893192461114e-07
919.4233777769301	1.883649089489802e-07
921.9445214955243	2.2387211385683422e-07
924.6568340327334	2.6607250597988136e-07
927.4991283753775	3.162277660168379e-07
930.5918702144222	3.7583740428844433e-07
933.9550163364017	4.466835921509635e-07
937.580526676265	5.308844442309889e-07
941.284011961078	6.309573444801942e-07
945.118401053491	7.498942093324558e-07
949.1727779182776	8.912509381337459e-07
953.4543708611952	1.0592537251772896e-06
957.9684965019137	1.2589254117941687e-06
962.5440861795986	1.4962356560944327e-06
967.368053376961	1.7782794100389227e-06
972.446358695395	2.1134890398366474e-06
977.7617226735866	2.511886431509582e-06
983.2992204585321	2.9853826189179636e-06
988.835645810378	3.5481338923357534e-06
994.505300602064	4.216965034285822e-06
1000.3376472074212	5.011872336272725e-06
1006.3348346963132	5.95662143529011e-06
1012.2778643816587	7.079457843841388e-06
1018.209079833813	8.413951416451948e-06
1024.330755232029	1e-05       
1030.704280174825	1.188502227437019e-05
1037.4074205063937	1.4125375446227555e-05
1044.2788133709048	1.678804018122562e-05
1051.4182536066287	1.9952623149688786e-05
1058.9269608988361	2.371373705661655e-05
1066.8018354625533	2.818382931264455e-05
1075.0259780364484	3.349654391578279e-05
1083.2652039624686	3.981071705534977e-05
1091.7133338830238	4.731512589614803e-05
1100.3492486385342	5.623413251903491e-05
1109.159746376539	6.683439175686148e-05
1118.0789900689758	7.943282347242821e-05
1126.8612696275243	9.440608762859246e-05
1135.927003736053	0.00011220184543019629
1145.2714287122872	0.0001333521432163324
1154.8792306020512	0.00015848931924611142
1164.392247323228	0.00018836490894898024
1173.9020507492403	0.00022387211385683424
1183.595577527975	0.0002660725059798809
1193.4428378557054	0.0003162277660168379
1203.405430331718	0.00037583740428844437
1212.8619236787938	0.0004466835921509635
1222.3489474483135	0.0005308844442309889
1231.9594890801577	0.000630957344480193
1241.7212928936115	0.0007498942093324559
1251.6523038688863	0.0008912509381337458
1261.347028831819	0.0010592537251772895
1271.4332952354146	0.0012589254117941673
1282.011917806186	0.0014962356560944345
1293.1169047701715	0.0017782794100389225
1304.3432650133973	0.0021134890398366475
1315.7127016755044	0.002511886431509582
1327.5878117676357	0.0029853826189179603
1339.9357669367544	0.0035481338923357567
1352.683265497268	0.004216965034285822
1365.0086191492728	0.0050118723362727255
1377.335575449695	0.005956621435290103
1389.836459998153	0.00707945784384138
1402.4340488047997	0.008413951416451957
1415.0      	0.01        
1426.77177175423	0.01188502227437019
1438.7316280627138	0.014125375446227554
1450.8794259975984	0.016788040181225587
1463.1922614175915	0.01995262314968883
1475.437748556426	0.023713737056616554
1487.5268000353424	0.02818382931264455
1500.0495928386488	0.033496543915782793
1513.0516462286516	0.03981071705534969
1526.5765117032156	0.04731512589614813
1540.2920315538763	0.056234132519034905
1554.3038059262442	0.06683439175686148
1568.9336343329257	0.07943282347242821
1584.1025246238323	0.09440608762859228
1599.6349102013828	0.11220184543019629
1614.9187020322402	0.1333521432163324
1630.6362700204725	0.1584893192461114
1646.620074546448	0.18836490894898023
1662.7030676207312	0.22387211385683378
1678.6578472513727	0.26607250597988086
1694.527579603453	0.3162277660168379
1711.0185420947892	0.3758374042884443
1728.3654161044353	0.4466835921509634
1746.8968888461975	0.5308844442309879
1766.9114688960387	0.630957344480193
1788.6148860048988	0.7498942093324559
1812.2575899309275	0.8912509381337458
1837.9438919127203	1.0592537251772898
1865.8110963511785	1.2589254117941662
1894.9707865004925	1.4962356560944328
1925.8035795383385	1.7782794100389228
1958.4355879430045	2.1134890398366473
1992.8469119679357	2.511886431509582
2029.0412815477964	2.9853826189179573
2065.5601633323545	3.548133892335753
2104.430109677405	4.216965034285823
2146.203593260449	5.011872336272725
2191.8146494630587	5.956621435290109
2242.76622396542	7.079457843841373
2315.8769542420546	8.413951416451948
2421.1      	10.0        
