# T(K)	P(bar)
1230.8      	1e-08       
1234.4931048640722	1.1885022274370215e-08
1238.4470432419553	1.4125375446227554e-08
1242.548897090098	1.6788040181225588e-08
1246.7064778812646	1.9952623149688826e-08
1250.8413176943777	2.3713737056616554e-08
1254.7117197564785	2.818382931264461e-08
1258.4773510087439	3.3496543915782795e-08
1262.1182882979801	3.981071705534969e-08
1265.6303628087717	4.731512589614813e-08
1268.9220875729302	5.6234132519034905e-08
1272.114044192176	6.683439175686162e-08
1275.4181382963989	7.94328234724282e-08
1278.901637993245	9.440608762859226e-08
1282.612432662784	1.1220184543019653e-07
1286.5635871942598	1.333521432163324e-07
1290.8170143043467	1.584893192461114e-07
1295.4105175610562	1.883649089489802e-07
1300.421073667256	2.2387211385683422e-07
1306.0052465379804	2.6607250597988136e-07
1311.625307335204	3.162277660168379e-07
1317.4776130803923	3.7583740428844433e-07
1323.5185835089542	4.466835921509635e-07
1329.7076937749987	5.308844442309889e-07
1335.9327009558547	6.309573444801942e-07
1342.1094416855856	7.498942093324558e-07
1348.4263209694432	8.912509381337459e-07
1355.2459638131418	1.0592537251772896e-06
1363.064180393139	1.2589254117941687e-06
1370.9745218698145	1.4962356560944327e-06
1379.1398993326648	1.7782794100389227e-06
1387.6825123513463	2.1134890398366474e-06
1396.712586137739	2.511886431509582e-06
1406.423270659165	2.9853826189179636e-06
1416.1123801681615	3.5481338923357534e-06
1426.1546449077853	4.216965034285822e-06
1436.6527688988897	5.011872336272725e-06
1447.732276004774	5.95662143529011e-06
1459.380614188051	7.079457843841388e-06
1471.3560578451277	8.413951416451948e-06
1484.0393084622383	1e-05       
1497.580366644199	1.188502227437019e-05
1512.1045735875955	1.4125375446227555e-05
1526.8624514443297	1.678804018122562e-05
1541.6493165469471	1.9952623149688786e-05
1556.895013235415	2.371373705661655e-05
1572.5800335449562	2.818382931264455e-05
1588.5366503301505	3.349654391578279e-05
1604.0140747332355	3.981071705534977e-05
1619.9536401825956	4.731512589614803e-05
1636.0686202271263	5.623413251903491e-05
1652.1490136511723	6.683439175686148e-05
1667.9965984261264	7.943282347242821e-05
1683.0600664681335	9.440608762859246e-05
1698.361476344157	0.00011220184543019629
1713.8989288026717	0.0001333521432163324
1729.6392559289256	0.00015848931924611142
1744.9701506448716	0.00018836490894898024
1760.1512353402527	0.00022387211385683424
1775.5720062339603	0.0002660725059798809
1791.2164440126935	0.0003162277660168379
1807.0646398880624	0.00037583740428844437
1822.5670879980228	0.0004466835921509635
1838.178183910746	0.0005308844442309889
1854.086690846492	0.000630957344480193
1870.2898689540061	0.0007498942093324559
1886.627983784297	0.0008912509381337458
1902.6300158493523	0.0010592537251772895
1919.0062999593317	0.0012589254117941673
1935.8803345213212	0.0014962356560944345
1953.350610341679	0.0017782794100389225
1971.0597983309926	0.0021134890398366475
1989.0308931896489	0.002511886431509582
2007.8760641757838	0.0029853826189179603
2027.6232207719863	0.0035481338923357567
2048.298197172581	0.004216965034285822
2069.204493240539	0.0050118723362727255
2090.6219495283976	0.005956621435290103
2112.9172134557625	0.00707945784384138
2136.1152602091993	0.008413951416451957
2160.2      	0.01        
2183.8204831931284	0.01188502227437019
2207.982259451732	0.014125375446227554
2232.559749904241	0.016788040181225587
2257.343764495879	0.01995262314968883
2281.5961903227917	0.023713737056616554
2304.559615353482	0.02818382931264455
2327.3063774363713	0.033496543915782793
2349.6035483807414	0.03981071705534969
2371.213639977275	0.04731512589614813
2391.277486158813	0.056234132519034905
2410.0379649251227	0.06683439175686148
2427.9598206258456	0.07943282347242821
2444.9331730577337	0.09440608762859228
2460.8865868456737	0.11220184543019629
2474.4721795842133	0.1333521432163324
2486.755550606361	0.1584893192461114
2497.6935111077205	0.18836490894898023
2507.2015338103656	0.22387211385683378
2515.1789236256864	0.26607250597988086
2521.0712061663057	0.3162277660168379
2525.855146136068	0.3758374042884443
2529.644236017406	0.4466835921509634
2532.5453753240504	0.5308844442309879
2534.4365167460824	0.630957344480193
2535.6955203160474	0.7498942093324559
2536.513385762791	0.8912509381337458
2536.9967407758	1.0592537251772898
2537.309101576336	1.2589254117941662
2537.464206311173	1.4962356560944328
2537.5      	1.7782794100389228
2537.5      	2.1134890398366473
2537.5      	2.511886431509582
2537.5      	2.9853826189179573
2537.4245049193005	3.548133892335753
2537.4      	4.216965034285823
2537.3674980372343	5.011872336272725
2537.3      	5.956621435290109
2537.3      	7.079457843841373
2537.231050911249	8.413951416451948
2537.2      	10.0        
