# T(K)	P(bar)
915.0       	1e-08       
915.3077587386726	1.1885022274370215e-08
915.6737541578804	1.4125375446227554e-08
916.1017958180882	1.6788040181225588e-08
916.5951027917088	1.9952623149688826e-08
917.151715843474	2.3713737056616554e-08
917.8321095561662	2.818382931264461e-08
918.5845427678179	3.3496543915782795e-08
919.4322604449037	3.981071705534969e-08
920.4179867174184	4.731512589614813e-08
921.5936027046179	5.6234132519034905e-08
922.8201148067028	6.683439175686162e-08
924.2033634332926	7.94328234724282e-08
925.7790442576388	9.440608762859226e-08
927.5551140503843	1.1220184543019653e-07
929.4919545069902	1.333521432163324e-07
931.6659538361796	1.584893192461114e-07
934.0958537625386	1.883649089489802e-07
936.808582847939	2.2387211385683422e-07
939.8399909777609	2.6607250597988136e-07
943.2097742842327	3.162277660168379e-07
947.0020824618423	3.7583740428844433e-07
951.2464655002511	4.466835921509635e-07
955.9952300848088	5.308844442309889e-07
961.3534641139001	6.309573444801942e-07
967.1439696013064	7.498942093324558e-07
973.5949373375499	8.912509381337459e-07
980.7943342010415	1.0592537251772896e-06
988.8051374866511	1.2589254117941687e-06
997.4134502700922	1.4962356560944327e-06
1006.8762963828593	1.7782794100389227e-06
1017.224204544917	2.1134890398366474e-06
1028.4977328849095	2.511886431509582e-06
1040.7765323210929	2.9853826189179636e-06
1053.6076784768488	3.5481338923357534e-06
1067.4900001394208	4.216965034285822e-06
1082.467890590358	5.011872336272725e-06
1098.5798594627647	5.95662143529011e-06
1115.616544560755	7.079457843841388e-06
1133.1893413239375	8.413951416451948e-06
1151.72838944495	1e-05       
1171.272186079282	1.188502227437019e-05
1191.8636765537078	1.4125375446227555e-05
1212.9463592061852	1.678804018122562e-05
1234.6424464201	1.9952623149688786e-05
1257.1986998210216	2.371373705661655e-05
1280.6642939276096	2.818382931264455e-05
1305.1767567445181	3.349654391578279e-05
1329.817432411121	3.981071705534977e-05
1355.3082585449347	4.731512589614803e-05
1381.8026571183384	5.623413251903491e-05
1409.4497182315233	6.683439175686148e-05
1438.1983519187522	7.943282347242821e-05
1466.75992133168	9.440608762859246e-05
1496.4743285331656	0.00011220184543019629
1527.342500468355	0.0001333521432163324
1559.249865947243	0.00015848931924611142
1590.5406151623529	0.00018836490894898024
1621.0675280036698	0.00022387211385683424
1651.2913216379234	0.0002660725059798809
1681.0221785614608	0.0003162277660168379
1710.1365342085865	0.00037583740428844437
1736.6457204766189	0.0004466835921509635
1761.3067603404004	0.0005308844442309889
1784.2280454157603	0.000630957344480193
1805.0662273706148	0.0007498942093324559
1823.166295761035	0.0008912509381337458
1837.8947260162352	0.0010592537251772895
1851.2503345659325	0.0012589254117941673
1863.468146712207	0.0014962356560944345
1874.7688782771277	0.0017782794100389225
1884.9674731459736	0.0021134890398366475
1894.250753374223	0.002511886431509582
1903.3468216981198	0.0029853826189179603
1912.3681865651147	0.0035481338923357567
1921.4428831151	0.004216965034285822
1930.4138683681415	0.0050118723362727255
1939.5863740787026	0.005956621435290103
1949.1416417595658	0.00707945784384138
1959.1478230347996	0.008413951416451957
1969.7      	0.01        
1980.3946161688757	0.01188502227437019
1991.6483722416813	0.014125375446227554
2003.5466912702946	0.016788040181225587
2016.1552947748066	0.01995262314968883
2029.354975716667	0.023713737056616554
2042.861253542804	0.02818382931264455
2056.967132651066	0.033496543915782793
2071.6884787480503	0.03981071705534969
2087.0495588887625	0.04731512589614813
2102.489315520649	0.056234132519034905
2118.0151922592036	0.06683439175686148
2134.01015090833	0.07943282347242821
2150.45092044757	0.09440608762859228
2167.2656614277435	0.11220184543019629
2183.6301254082573	0.1333521432163324
2200.209485292417	0.1584893192461114
2217.0186924672944	0.18836490894898023
2234.0432976922857	0.22387211385683378
2251.1946857952257	0.26607250597988086
2267.7841243434095	0.3162277660168379
2284.212414746337	0.3758374042884443
2300.4222948284523	0.4466835921509634
2316.311882733224	0.5308844442309879
2331.047026313225	0.630957344480193
2344.3825635818694	0.7498942093324559
2356.8601785973565	0.8912509381337458
2368.4408159892882	1.0592537251772898
2379.123340639323	1.2589254117941662
2388.0418628924376	1.4962356560944328
2395.6025541377844	1.7782794100389228
2402.000683464813	2.1134890398366473
2407.177720120756	2.511886431509582
2411.0298924928916	2.9853826189179573
2413.3648524209907	3.548133892335753
2415.009453564864	4.216965034285823
2416.060015702125	5.011872336272725
2416.6623223130873	5.956621435290109
2417.0585242921106	7.079457843841373
2417.1689490887507	8.413951416451948
2417.3      	10.0        
