# T(K)	P(bar)
1231.9      	1e-08       
1232.1308190540046	1.1885022274370215e-08
1232.4190033263042	1.4125375446227554e-08
1232.734530545392	1.6788040181225588e-08
1233.0815166786074	1.9952623149688826e-08
1233.5586135801204	2.3713737056616554e-08
1234.091640765907	2.818382931264461e-08
1234.736088491036	3.3496543915782795e-08
1235.5045720744952	3.981071705534969e-08
1236.4022551550959	4.731512589614813e-08
1237.4211223440022	5.6234132519034905e-08
1238.6838719821217	6.683439175686162e-08
1240.1456457192553	7.94328234724282e-08
1241.8443684745896	9.440608762859226e-08
1243.8661368604612	1.1220184543019653e-07
1246.190345408388	1.333521432163324e-07
1248.925527308229	1.584893192461114e-07
1252.0944716833849	1.883649089489802e-07
1255.748812919494	2.2387211385683422e-07
1259.9768295216138	2.6607250597988136e-07
1264.7958131796968	3.162277660168379e-07
1270.2755706309085	3.7583740428844433e-07
1276.4895867762345	4.466835921509635e-07
1283.4917252680361	5.308844442309889e-07
1291.1350885154166	6.309573444801942e-07
1299.8323224230294	7.498942093324558e-07
1309.8334070717742	8.912509381337459e-07
1321.2938162259363	1.0592537251772896e-06
1334.2372276832207	1.2589254117941687e-06
1346.8007112049995	1.4962356560944327e-06
1359.5687112253743	1.7782794100389227e-06
1372.7202215079055	2.1134890398366474e-06
1386.3000212735892	2.511886431509582e-06
1400.3443997136683	2.9853826189179636e-06
1414.415599768044	3.5481338923357534e-06
1429.1714755561136	4.216965034285822e-06
1444.6653964786547	5.011872336272725e-06
1460.992323925382	5.95662143529011e-06
1478.1082494191771	7.079457843841388e-06
1495.6893413239375	8.413951416451948e-06
1513.520018198362	1e-05       
1531.7941494148622	1.188502227437019e-05
1550.9256264386186	1.4125375446227555e-05
1570.446628894616	1.678804018122562e-05
1590.9665802857687	1.9952623149688786e-05
1611.6015909377518	2.371373705661655e-05
1632.4667132568836	2.818382931264455e-05
1654.6567415424656	3.349654391578279e-05
1677.98838131428	3.981071705534977e-05
1701.1452614265324	4.731512589614803e-05
1723.688128426894	5.623413251903491e-05
1745.8716534024913	6.683439175686148e-05
1769.3643041995342	7.943282347242821e-05
1793.336106349014	9.440608762859246e-05
1815.3979144449063	0.00011220184543019629
1836.5107146026462	0.0001333521432163324
1858.2865857404536	0.00015848931924611142
1881.0863778821165	0.00018836490894898024
1901.354674730126	0.00022387211385683424
1919.3941588979578	0.0002660725059798809
1936.060335688787	0.0003162277660168379
1953.0812558852638	0.00037583740428844437
1968.9712651979733	0.0004466835921509635
1982.158472924865	0.0005308844442309889
1993.1847433575322	0.000630957344480193
2001.6751104430311	0.0007498942093324559
2006.24017193973	0.0008912509381337458
2004.91634462987	0.0010592537251772895
1998.6099559455647	0.0012589254117941673
1988.0819545388908	0.0014962356560944345
1974.3340559910976	0.0017782794100389225
1958.6013398755913	0.0021134890398366475
1939.9219593545604	0.002511886431509582
1921.130208093333	0.0029853826189179603
1902.8905377797314	0.0035481338923357567
1885.4161093194991	0.004216965034285822
1871.6866014539744	0.0050118723362727255
1863.289296915267	0.005956621435290103
1859.3616285535868	0.00707945784384138
1859.3223689856	0.008413951416451957
1861.9      	0.01        
1865.3622858100678	0.01188502227437019
1870.5063123682048	0.014125375446227554
1877.061467816716	0.016788040181225587
1884.577094631517	0.01995262314968883
1892.0516127552212	0.023713737056616554
1899.6532051178272	0.02818382931264455
1908.0268789995596	0.033496543915782793
1917.1502928194454	0.03981071705534969
1926.8910884263153	0.04731512589614813
1936.7662627187908	0.056234132519034905
1947.9360619620006	0.06683439175686148
1960.3188594698192	0.07943282347242821
1973.7323540611112	0.09440608762859228
1987.921731104371	0.11220184543019629
2002.742377728233	0.1333521432163324
2018.8521637652225	0.1584893192461114
2036.1622623593573	0.18836490894898023
2054.607742497292	0.22387211385683378
2074.0725736466748	0.26607250597988086
2094.066848043193	0.3162277660168379
2114.9777731298254	0.3758374042884443
2136.610766863264	0.4466835921509634
2158.7320401984125	0.5308844442309879
2180.558964111034	0.630957344480193
2201.054789541363	0.7498942093324559
2220.644654724276	0.8912509381337458
2239.0998166992317	1.0592537251772898
2256.250997387421	1.2589254117941662
2270.75329009466	1.4962356560944328
2283.550038627934	1.7782794100389228
2295.0312985831447	2.1134890398366473
2305.3211569584932	2.511886431509582
2314.6305735244887	2.9853826189179573
2322.500498231369	3.548133892335753
2329.761256898407	4.216965034285823
2336.3376472074215	5.011872336272725
2342.1727966822855	5.956621435290109
2347.085701222171	7.079457843841373
2350.97850534879	8.413951416451948
2355.4      	10.0        
