# T(K)	P(bar)
948.9       	1e-08       
950.2849143240271	1.1885022274370215e-08
951.9045182946734	1.4125375446227554e-08
953.707183272353	1.6788040181225588e-08
955.6804111668348	1.9952623149688826e-08
957.9068633738957	2.3713737056616554e-08
960.2772662490167	2.818382931264461e-08
962.8958996873624	3.3496543915782795e-08
965.7244697051198	3.981071705534969e-08
968.7146312464492	4.731512589614813e-08
971.8496072123145	5.6234132519034905e-08
975.1415585430137	6.683439175686162e-08
978.68726744025	7.94328234724282e-08
982.4669622101957	9.440608762859226e-08
986.4146372247993	1.1220184543019653e-07
990.4432653745395	1.333521432163324e-07
994.774460988353	1.584893192461114e-07
999.4105175610562	1.883649089489802e-07
1004.373027652945	2.2387211385683422e-07
1009.7178788292099	2.6607250597988136e-07
1015.106459088552	3.162277660168379e-07
1020.7755706309084	3.7583740428844433e-07
1026.7486949830964	4.466835921509635e-07
1033.0485896623402	5.308844442309889e-07
1039.5887870802017	6.309573444801942e-07
1046.406753875214	7.498942093324558e-07
1053.6083231003413	8.912509381337459e-07
1061.3152601707911	1.0592537251772896e-06
1069.7233406393234	1.2589254117941687e-06
1078.641862892438	1.4962356560944327e-06
1088.236106753922	1.7782794100389227e-06
1098.7399481219804	2.1134890398366474e-06
1110.1977328849096	2.511886431509582e-06
1122.476532321093	2.9853826189179636e-06
1135.3076784768489	3.5481338923357534e-06
1149.0830056023779	4.216965034285822e-06
1163.9353886275921	5.011872336272725e-06
1179.992323925382	5.95662143529011e-06
1197.1082494191771	7.079457843841388e-06
1215.4477813001965	8.413951416451948e-06
1235.1784349408554	1e-05       
1256.3095682985086	1.188502227437019e-05
1278.8707517263422	1.4125375446227555e-05
1302.2959546735392	1.678804018122562e-05
1327.1951685565696	1.9952623149688786e-05
1353.4532717081827	2.371373705661655e-05
1381.0594552690611	2.818382931264455e-05
1410.2509307285952	3.349654391578279e-05
1439.7427394170604	3.981071705534977e-05
1470.534252781739	4.731512589614803e-05
1502.902110673636	5.623413251903491e-05
1536.9352513576227	6.683439175686148e-05
1572.0547733965918	7.943282347242821e-05
1607.0018983411935	9.440608762859246e-05
1643.2080149442118	0.00011220184543019629
1680.2964291231249	0.0001333521432163324
1717.8474564458995	0.00015848931924611142
1754.4057438454627	0.00018836490894898024
1789.3456807777204	0.00022387211385683424
1823.0577796299162	0.0002660725059798809
1855.5558141371266	0.0003162277660168379
1887.1797358013105	0.00037583740428844437
1914.6965811964901	0.0004466835921509635
1939.9583479198257	0.0005308844442309889
1963.651265474139	0.000630957344480193
1985.6741569842036	0.0007498942093324559
2005.2158237420024	0.0008912509381337458
2020.4398226272742	0.0010592537251772895
2033.7938468887858	0.0012589254117941673
2045.3994599941434	0.0014962356560944345
2055.3045053711735	0.0017782794100389225
2062.973216241546	0.0021134890398366475
2068.3651237201575	0.002511886431509582
2072.617138579943	0.0029853826189179603
2075.9122298237494	0.0035481338923357567
2078.395034895276	0.004216965034285822
2079.7211805413776	0.0050118723362727255
2080.306150171374	0.005956621435290103
2080.3007402516305	0.00707945784384138
2079.6693664764002	0.008413951416451957
2078.3      	0.01        
2075.991809459955	0.01188502227437019
2073.438471726414	0.014125375446227554
2070.8573882732107	0.016788040181225587
2068.5554499641776	0.01995262314968883
2067.1241592596384	0.023713737056616554
2067.210703185389	0.02818382931264455
2068.7536283034538	0.033496543915782793
2071.850548742884	0.03981071705534969
2076.5292624928984	0.04731512589614813
2082.799214424629	0.056234132519034905
2090.2119603664737	0.06683439175686148
2098.5356160278297	0.07943282347242821
2107.6565181559977	0.09440608762859228
2117.4745645210746	0.11220184543019629
2127.1234230001514	0.1333521432163324
2136.635904790528	0.1584893192461114
2145.8586551940703	0.18836490894898023
2154.6015338103657	0.22387211385683378
2162.5789236256865	0.26607250597988086
2168.981852075161	0.3162277660168379
2174.26127348452	0.3758374042884443
2178.344236017406	0.4466835921509634
2181.173807521202	0.5308844442309879
2182.513366028475	0.630957344480193
2182.63363197893	0.7498942093324559
2182.0179978691017	0.8912509381337458
2180.9372220907517	1.0592537251772898
2179.7180858129755	1.2589254117941662
2178.3221431994443	1.4962356560944328
2176.9234133208683	1.7782794100389228
2175.4283761529105	2.1134890398366473
2173.7245682679236	2.511886431509582
2171.6379748996833	2.9853826189179573
2168.806682014111	3.548133892335753
2165.4391256480144	4.216965034285823
2161.44738812236	5.011872336272725
2156.789809929862	5.956621435290109
2151.6391842025623	7.079457843841373
2145.6530219886854	8.413951416451948
2137.6      	10.0        
