# T(K)	P(bar)
1095.4      	1e-08       
1095.5538793693363	1.1885022274370215e-08
1095.709501663152	1.4125375446227554e-08
1095.900897909044	1.6788040181225588e-08
1096.1407583393036	1.9952623149688826e-08
1096.3793067900604	2.3713737056616554e-08
1096.751171975648	2.818382931264461e-08
1097.142271383909	3.3496543915782795e-08
1097.5661302224519	3.981071705534969e-08
1098.0629262492898	4.731512589614813e-08
1098.689921442463	5.6234132519034905e-08
1099.3738145787704	6.683439175686162e-08
1100.1651051455904	7.94328234724282e-08
1101.1048463457703	9.440608762859226e-08
1102.2352729922459	1.1220184543019653e-07
1103.4748508844737	1.333521432163324e-07
1104.8340403121115	1.584893192461114e-07
1106.3972358416922	1.883649089489802e-07
1108.1843681144878	2.2387211385683422e-07
1110.0989416701648	2.6607250597988136e-07
1112.2425836354207	3.162277660168379e-07
1114.5306367422602	3.7583740428844433e-07
1116.9936786466947	4.466835921509635e-07
1119.6476150424044	5.308844442309889e-07
1122.32673205695	6.309573444801942e-07
1125.0892487585136	7.498942093324558e-07
1127.9564676033258	8.912509381337459e-07
1130.9674077579966	1.0592537251772896e-06
1134.1911331030572	1.2589254117941687e-06
1137.4483325346296	1.4962356560944327e-06
1140.9512770688923	1.7782794100389227e-06
1144.767640810078	2.1134890398366474e-06
1148.9422926433976	2.511886431509582e-06
1153.516747335309	2.9853826189179636e-06
1158.280695003381	3.5481338923357534e-06
1163.437814259457	4.216965034285822e-06
1168.9401413191245	5.011872336272725e-06
1174.7722280841656	5.95662143529011e-06
1180.9529789569249	7.079457843841388e-06
1187.253825277567	8.413951416451948e-06
1193.9085532302092	1e-05       
1200.8636257296318	1.188502227437019e-05
1208.041933035166	1.4125375446227555e-05
1215.3037459487973	1.678804018122562e-05
1222.5808154733666	1.9952623149688786e-05
1230.0858694610927	2.371373705661655e-05
1237.840016772478	2.818382931264455e-05
1245.817736482662	3.349654391578279e-05
1253.5179476284754	3.981071705534977e-05
1261.476820091298	4.731512589614803e-05
1269.674282791328	5.623413251903491e-05
1278.0856505561578	6.683439175686148e-05
1286.6067137266107	7.943282347242821e-05
1295.0749092897165	9.440608762859246e-05
1303.72818303164	0.00011220184543019629
1312.540000131468	0.0001333521432163324
1321.5257150350074	0.00015848931924611142
1330.5670119187703	0.00018836490894898024
1339.6117068102528	0.00022387211385683424
1348.9215266399758	0.0002660725059798809
1358.5657639674453	0.0003162277660168379
1368.62536952836	0.00037583740428844437
1378.5469363187344	0.0004466835921509635
1388.7935246772597	0.0005308844442309889
1399.3453362772236	0.000630957344480193
1410.1950081056905	0.0007498942093324559
1421.4074398519685	0.0008912509381337458
1432.4081358964295	0.0010592537251772895
1443.767896180198	0.0012589254117941673
1455.5806045242496	0.0014962356560944345
1467.8990912231484	0.0017782794100389225
1480.390393465611	0.0021134890398366475
1492.7245423518966	0.002511886431509582
1505.4480592850146	0.0029853826189179603
1518.6403531206604	0.0035481338923357567
1532.3783003925437	0.004216965034285822
1546.0297996906504	0.0050118723362727255
1560.0438662380157	0.005956621435290103
1574.791426287066	0.00707945784384138
1590.3287042215995	0.008413951416451957
1606.6      	0.01        
1622.5265147263115	0.01188502227437019
1639.509435441462	0.014125375446227554
1657.6045674508339	0.016788040181225587
1676.7557699360073	0.01995262314968883
1696.3962590482936	0.023713737056616554
1716.4311771288174	0.02818382931264455
1737.8156517756806	0.033496543915782793
1760.4680692705488	0.03981071705534969
1784.1911974730142	0.04731512589614813
1808.0170148135905	0.056234132519034905
1832.6022961340557	0.06683439175686148
1858.2800012256012	0.07943282347242821
1884.96873547137	0.09440608762859228
1912.5995318853702	0.11220184543019629
1940.6970077764415	0.1333521432163324
1970.326109497056	0.1584893192461114
2001.5126250785047	0.18836490894898023
2034.19050335595	0.22387211385683378
2068.0146361729103	0.26607250597988086
2101.824793426776	0.3162277660168379
2136.5064874596765	0.3758374042884443
2171.7393830450214	0.4466835921509634
2207.1576517202443	0.5308844442309879
2241.5133875538304	0.630957344480193
2274.440040933604	0.7498942093324559
2307.189760004691	0.8912509381337458
2339.843373937615	1.0592537251772898
2372.520315267211	1.2589254117941662
2403.541262234566	1.4962356560944328
2434.265286198772	1.7782794100389228
2464.9151778641167	2.1134890398366473
2495.3389026075565	2.511886431509582
2525.3537456737827	2.9853826189179573
2553.1537241325896	3.548133892335753
2580.4565576398913	4.216965034285823
2607.290651638185	5.011872336272725
2633.8132726637778	5.956621435290109
2659.962603279298	7.079457843841373
2690.417533677829	8.413951416451948
2729.9      	10.0        
