# T(K)	P(bar)
894.9       	1e-08       
895.6693968466817	1.1885022274370215e-08
896.5022591473366	1.4125375446227554e-08
897.4372242725245	1.6788040181225588e-08
898.4902055834174	1.9952623149688826e-08
899.6034316869478	2.3713737056616554e-08
900.8237503220731	2.818382931264461e-08
902.1237227052902	3.3496543915782795e-08
903.5260790377641	3.981071705534969e-08
905.0573156232246	4.731512589614813e-08
906.6248036061572	5.6234132519034905e-08
908.3664150346353	6.683439175686162e-08
910.2993394350319	7.94328234724282e-08
912.431467430524	9.440608762859226e-08
914.770545984492	1.1220184543019653e-07
917.2497017689474	1.333521432163324e-07
919.9106339402167	1.584893192461114e-07
922.8495197121679	1.883649089489802e-07
926.0726442003536	2.2387211385683422e-07
929.4231479227883	2.6607250597988136e-07
932.9556731153342	3.162277660168379e-07
936.6490187876162	3.7583740428844433e-07
940.5657966553975	4.466835921509635e-07
944.752094479113	5.308844442309889e-07
949.0071626786854	6.309573444801942e-07
953.4493452220496	7.498942093324558e-07
958.1309330757534	8.912509381337459e-07
963.0478524127944	1.0592537251772896e-06
968.209453595426	1.2589254117941687e-06
973.4830145798763	1.4962356560944327e-06
978.9465363454641	1.7782794100389227e-06
984.6164270418764	2.1134890398366474e-06
990.4714376886811	2.511886431509582e-06
996.4904570201436	2.9853826189179636e-06
1002.4131212138764	3.5481338923357534e-06
1008.5262842131925	4.216965034285822e-06
1014.8651609467806	5.011872336272725e-06
1021.4844082477233	5.95662143529011e-06
1028.378322682724	7.079457843841388e-06
1035.3743670763245	8.413951416451948e-06
1042.8280254777071	1e-05       
1050.7088744317127	1.188502227437019e-05
1058.9454706214833	1.4125375446227555e-05
1067.3785436824742	1.678804018122562e-05
1075.9443672079117	1.9952623149688786e-05
1084.8255153404707	2.371373705661655e-05
1093.9903226829035	2.818382931264455e-05
1103.3365743198879	3.349654391578279e-05
1112.2688192490314	3.981071705534977e-05
1121.418104570613	4.731512589614803e-05
1130.7991803329462	5.623413251903491e-05
1140.4079380173014	6.683439175686148e-05
1150.1235427537056	7.943282347242821e-05
1159.677170472044	9.440608762859246e-05
1169.4752347926724	0.00011220184543019629
1179.4739287205039	0.0001333521432163324
1189.632746169095	0.00015848931924611142
1199.6174827276855	0.00018836490894898024
1209.397222718734	0.00022387211385683424
1219.3261156939743	0.0002660725059798809
1229.4116161909242	0.0003162277660168379
1239.6320159272404	0.00037583740428844437
1249.7086071987148	0.0004466835921509635
1259.9349267473556	0.0005308844442309889
1270.5574548611621	0.000630957344480193
1281.6292225072004	0.0007498942093324559
1293.001831849854	0.0008912509381337458
1304.230684201949	0.0010592537251772895
1315.876546416394	0.0012589254117941673
1328.0368334302707	0.0014962356560944345
1340.7332511830818	0.0017782794100389225
1353.461730050401	0.0021134890398366475
1365.9598491312954	0.002511886431509582
1378.7020345332767	0.0029853826189179603
1391.5611491187465	0.0035481338923357567
1404.3664946333956	0.004216965034285822
1416.4578225831474	0.0050118723362727255
1428.1845051412217	0.005956621435290103
1439.8980885517399	0.00707945784384138
1451.6201094659996	0.008413951416451957
1463.3      	0.01        
1474.3793145922166	0.01188502227437019
1485.8031230732574	0.014125375446227554
1497.5785280885543	0.016788040181225587
1509.719433643794	0.01995262314968883
1522.1239530831328	0.023713737056616554
1534.7886751963788	0.02818382931264455
1548.2764069903756	0.033496543915782793
1562.633102007233	0.03981071705534969
1577.8495588887624	0.04731512589614813
1593.289315520649	0.056234132519034905
1609.1977353117172	0.06683439175686148
1625.6638446241066	0.07943282347242821
1642.4944699255368	0.09440608762859228
1659.461268395406	0.11220184543019629
1675.6713506402548	0.1333521432163324
1691.8655561292503	0.1584893192461114
1708.0925505320565	0.18836490894898023
1724.3671289731456	0.22387211385683378
1740.6410041964002	0.26607250597988086
1757.1841243434096	0.3162277660168379
1774.785902915403	0.3758374042884443
1793.7784259062764	0.4466835921509634
1814.5138319730956	0.5308844442309879
1836.9711363597282	0.630957344480193
1861.138662679133	0.7498942093324559
1887.2454411661463	0.8912509381337458
1915.1517809856687	1.0592537251772898
1944.633850292019	1.2589254117941662
1974.1813022784245	1.4962356560944328
2004.326044714521	1.7782794100389228
2035.5482205188518	2.1134890398366473
2068.053194400011	2.511886431509582
2102.0807170205444	2.9853826189179573
2137.2767469604596	3.548133892335753
2174.9811479181053	4.216965034285823
2215.421052042371	5.011872336272725
2259.0412841826533	5.956621435290109
2306.347800478003	7.079457843841373
2368.5966927519303	8.413951416451948
2456.0      	10.0        
