# T(K)	P(bar)
1022.8      	1e-08       
1032.4174605835215	1.1885022274370215e-08
1041.5963456312472	1.4125375446227554e-08
1050.3650594528924	1.6788040181225588e-08
1058.7178529708208	1.9952623149688826e-08
1066.4309195452813	2.3713737056616554e-08
1073.5615643519204	2.818382931264461e-08
1080.5639763567967	3.3496543915782795e-08
1087.5365765959602	3.981071705534969e-08
1094.5921887421885	4.731512589614813e-08
1101.489135867092	5.6234132519034905e-08
1108.3106314368654	6.683439175686162e-08
1115.2208411647234	7.94328234724282e-08
1122.194402291572	9.440608762859226e-08
1129.1917968953373	1.1220184543019653e-07
1135.9320016843258	1.333521432163324e-07
1142.6404148245324	1.584893192461114e-07
1149.416467381161	1.883649089489802e-07
1156.261303738811	2.2387211385683422e-07
1163.0420850818336	2.6607250597988136e-07
1169.7465991529145	3.162277660168379e-07
1176.5898677772964	3.7583740428844433e-07
1183.6401441469459	4.466835921509635e-07
1190.9815012962008	5.308844442309889e-07
1198.5460669843296	6.309573444801942e-07
1206.3695381491216	7.498942093324558e-07
1214.724633415293	8.912509381337459e-07
1223.8231492437392	1.0592537251772896e-06
1233.9143564026838	1.2589254117941687e-06
1244.3839260041661	1.4962356560944327e-06
1255.4725038041167	1.7782794100389227e-06
1267.280084814943	2.1134890398366474e-06
1279.8171629150984	2.511886431509582e-06
1293.059005444316	2.9853826189179636e-06
1306.6626292838457	3.5481338923357534e-06
1320.8969946764635	4.216965034285822e-06
1335.707874888233	5.011872336272725e-06
1351.0430346730318	5.95662143529011e-06
1366.5741522507349	7.079457843841388e-06
1381.9898177501639	8.413951416451948e-06
1397.8810737033668	1e-05       
1414.3036520107	1.188502227437019e-05
1431.2909412429663	1.4125375446227555e-05
1448.1570873649482	1.678804018122562e-05
1465.2261725490855	1.9952623149688786e-05
1482.8277563677118	2.371373705661655e-05
1501.0218578258573	2.818382931264455e-05
1519.8813901935619	3.349654391578279e-05
1538.2848948320561	3.981071705534977e-05
1557.2409798288152	4.731512589614803e-05
1576.748292360305	5.623413251903491e-05
1596.7640676753654	6.683439175686148e-05
1616.9916381921414	7.943282347242821e-05
1636.7986517041556	9.440608762859246e-05
1656.899486839022	0.00011220184543019629
1677.234643158815	0.0001333521432163324
1697.7922501217122	0.00015848931924611142
1717.9975831575998	0.00018836490894898024
1737.7896174069615	0.00022387211385683424
1757.8392568319482	0.0002660725059798809
1778.1232323818485	0.0003162277660168379
1798.5407694583987	0.00037583740428844437
1818.1513663174987	0.0004466835921509635
1837.9424721255732	0.0005308844442309889
1858.1421982186941	0.000630957344480193
1878.7649793970375	0.0007498942093324559
1899.6681557240272	0.0008912509381337458
1920.0584336542229	0.0010592537251772895
1941.2968662975147	0.0012589254117941673
1963.436293424414	0.0014962356560944345
1986.5046093400088	0.0017782794100389225
2010.1432129507448	0.0021134890398366475
2034.040204196499	0.002511886431509582
2059.0120195630775	0.0029853826189179603
2085.0030309673753	0.0035481338923357567
2111.9342396332577	0.004216965034285822
2138.9252039598	0.0050118723362727255
2166.5203522703823	0.005956621435290103
2194.94596163098	0.00707945784384138
2224.0766923651995	0.008413951416451957
2253.8      	0.01        
2282.113803957887	0.01188502227437019
2310.529302693687	0.014125375446227554
2339.074116448947	0.016788040181225587
2367.6687256985365	0.01995262314968883
2395.578894437049	0.023713737056616554
2422.0903975294423	0.02818382931264455
2448.3868198915516	0.033496543915782793
2474.277213419539	0.03981071705534969
2499.559734348369	0.04731512589614813
2523.072054092359	0.056234132519034905
2545.0520091172984	0.06683439175686148
2565.8128537766543	0.07943282347242821
2585.0904425763893	0.09440608762859228
2602.7151415558656	0.11220184543019629
2617.304215576229	0.1333521432163324
2630.199479769528	0.1584893192461114
2641.5022250861334	0.18836490894898023
2651.233564486573	0.22387211385683378
2659.3705020982	0.26607250597988086
2665.5630038285085	0.3162277660168379
2670.8122947092625	0.3758374042884443
2675.1249048622594	0.4466835921509634
2678.5271670987336	0.5308844442309879
2681.0486889947765	0.630957344480193
2682.7273604213965	0.7498942093324559
2683.937232736214	0.8912509381337458
2684.769296357649	1.0592537251772898
2685.309101576336	1.2589254117941662
2685.464206311173	1.4962356560944328
2685.5598103710627	1.7782794100389228
2685.6      	2.1134890398366473
2685.6      	2.511886431509582
2685.6      	2.9853826189179573
2685.6      	3.548133892335753
2685.6      	4.216965034285823
2685.567498037234	5.011872336272725
2685.5      	5.956621435290109
2685.5      	7.079457843841373
2685.4310509112493	8.413951416451948
2685.4      	10.0        
