# T(K)	P(bar)
1094.0      	1e-08       
1097.8469842334086	1.1885022274370215e-08
1101.573289084075	1.4125375446227554e-08
1105.1798359993138	1.6788040181225588e-08
1108.6162722978472	1.9952623149688826e-08
1111.6378860074299	2.3713737056616554e-08
1114.1475006441462	2.818382931264461e-08
1116.45671974989	3.3496543915782795e-08
1118.6198976306248	3.981071705534969e-08
1120.696644529031	4.731512589614813e-08
1122.6560045076967	5.6234132519034905e-08
1124.721443736311	6.683439175686162e-08
1126.968468578883	7.94328234724282e-08
1129.4621158644256	9.440608762859226e-08
1132.288182480615	1.1220184543019653e-07
1135.3871272111842	1.333521432163324e-07
1138.8999941482912	1.584893192461114e-07
1142.7843756258183	1.883649089489802e-07
1147.0449049481156	2.2387211385683422e-07
1151.751564939155	2.6607250597988136e-07
1156.8876108418997	3.162277660168379e-07
1162.5265918556504	3.7583740428844433e-07
1168.7594753020921	4.466835921509635e-07
1175.6712773243653	5.308844442309889e-07
1183.157045453243	6.309573444801942e-07
1191.235010233401	7.498942093324558e-07
1200.3961743355603	8.912509381337459e-07
1211.0245198682867	1.0592537251772896e-06
1223.459981624061	1.2589254117941687e-06
1236.4112269829316	1.4962356560944327e-06
1250.285487533443	1.7782794100389227e-06
1265.1233325091218	2.1134890398366474e-06
1280.8668821849108	2.511886431509582e-06
1297.399121948661	2.9853826189179636e-06
1313.9314423504343	3.5481338923357534e-06
1330.915901806192	4.216965034285822e-06
1348.2504318084357	5.011872336272725e-06
1365.8297173132346	5.95662143529011e-06
1383.1833639944434	7.079457843841388e-06
1399.9619522589276	8.413951416451948e-06
1416.758871701547	1e-05       
1433.6302096031677	1.188502227437019e-05
1450.6495262084395	1.4125375446227555e-05
1467.0471682714774	1.678804018122562e-05
1483.5256776151818	1.9952623149688786e-05
1500.29356767705	2.371373705661655e-05
1517.3715519154318	2.818382931264455e-05
1534.8590202618561	3.349654391578279e-05
1551.7994847826455	3.981071705534977e-05
1569.1070959258195	4.731512589614803e-05
1586.7734631242745	5.623413251903491e-05
1604.7491310812309	6.683439175686148e-05
1622.7468906748975	7.943282347242821e-05
1640.1077690016928	9.440608762859246e-05
1657.6061695140154	0.00011220184543019629
1675.2221431177313	0.0001333521432163324
1692.9354796747532	0.00015848931924611142
1709.9960137945493	0.00018836490894898024
1726.6873244803792	0.00022387211385683424
1743.468209785957	0.0002660725059798809
1760.3374095770473	0.0003162277660168379
1777.304518281346	0.00037583740428844437
1793.737113277904	0.0004466835921509635
1810.3985549294048	0.0005308844442309889
1827.4846566274964	0.000630957344480193
1844.997798567595	0.0007498942093324559
1862.7775117652645	0.0008912509381337458
1880.3136712194823	0.0010592537251772895
1898.510363935556	0.0012589254117941673
1917.4864621762445	0.0014962356560944345
1937.3263699009442	0.0017782794100389225
1957.6445007636835	0.0021134890398366475
1978.5017219982242	0.002511886431509582
2000.5091037487755	0.0029853826189179603
2023.690801143626	0.0035481338923357567
2048.0665309945357	0.004216965034285822
2072.717238298546	0.0050118723362727255
2098.1671413449626	0.005956621435290103
2124.7489226375014	0.00707945784384138
2152.4238549647994	0.008413951416451957
2181.1      	0.01        
2209.413803957887	0.01188502227437019
2238.3220601778717	0.014125375446227554
2267.6440754487753	0.016788040181225587
2297.1861035081565	0.01995262314968883
2326.3685306507036	0.023713737056616554
2354.324851036904	0.02818382931264455
2382.0589968736235	0.033496543915782793
2409.486357568529	0.03981071705534969
2436.5642446585616	0.04731512589614813
2462.1142987803637	0.056234132519034905
2486.1096956781903	0.06683439175686148
2509.165886927463	0.07943282347242821
2531.096107918782	0.09440608762859228
2551.6964126541034	0.11220184543019629
2569.141548784274	0.1333521432163324
2584.691090166945	0.1584893192461114
2598.4531268774554	0.18836490894898023
2610.449963277268	0.22387211385683378
2620.6610222408785	0.26607250597988086
2628.276093308422	0.3162277660168379
2634.4204645071986	0.3758374042884443
2639.2453507588284	0.4466835921509634
2642.916943126898	0.5308844442309879
2645.3596674636897	0.630957344480193
2646.8946243792566	0.7498942093324559
2647.947693946845	0.8912509381337458
2648.6209259697494	1.0592537251772898
2649.009101576336	1.2589254117941662
2649.1642063111726	1.4962356560944328
2649.2      	1.7782794100389228
2649.2      	2.1134890398366473
2649.2      	2.511886431509582
2649.2      	2.9853826189179573
2649.2      	3.548133892335753
2649.2      	4.216965034285823
2649.167498037234	5.011872336272725
2649.1      	5.956621435290109
2649.1      	7.079457843841373
2649.031050911249	8.413951416451948
2648.9      	10.0        
