# T(K)	P(bar)
971.9       	1e-08       
978.2859938274584	1.1885022274370215e-08
984.5800665260851	1.4125375446227554e-08
990.7897129987992	1.6788040181225588e-08
996.9325445956945	1.9952623149688826e-08
1002.9757720148596	2.3713737056616554e-08
1008.6973452395881	2.818382931264461e-08
1014.4371622050701	3.3496543915782795e-08
1020.2212510398308	3.981071705534969e-08
1026.0742020247699	4.731512589614813e-08
1031.795533162474	5.6234132519034905e-08
1037.4542738055814	6.683439175686162e-08
1043.2288891612445	7.94328234724282e-08
1049.133105423769	9.440608762859226e-08
1055.1653421511528	1.1220184543019653e-07
1060.9758635209705	1.333521432163324e-07
1066.8659479844705	1.584893192461114e-07
1072.8903254459233	1.883649089489802e-07
1079.0491963720851	2.2387211385683422e-07
1085.2715604280354	2.6607250597988136e-07
1091.5089026596102	3.162277660168379e-07
1097.9857828783283	3.7583740428844433e-07
1104.7196982503765	4.466835921509635e-07
1111.7303814370237	5.308844442309889e-07
1118.9009593288959	6.309573444801942e-07
1126.2713300227028	7.498942093324558e-07
1134.1112476525016	8.912509381337459e-07
1142.58129730424	1.0592537251772896e-06
1151.8733993091716	1.2589254117941687e-06
1161.6449976038884	1.4962356560944327e-06
1172.0940208356137	1.7782794100389227e-06
1183.348597660816	2.1134890398366474e-06
1195.4805912434003	2.511886431509582e-06
1208.5619265904454	2.9853826189179636e-06
1222.0116391224465	3.5481338923357534e-06
1236.1969946764634	4.216965034285822e-06
1251.072878813764	5.011872336272725e-06
1266.6053569861194	5.95662143529011e-06
1282.5326765428454	7.079457843841388e-06
1298.4035122826685	8.413951416451948e-06
1314.8588717015468	1e-05       
1331.8364399730388	1.188502227437019e-05
1349.2185512659842	1.4125375446227555e-05
1366.3970334272622	1.678804018122562e-05
1383.7764200160373	1.9952623149688786e-05
1401.8153964319145	2.371373705661655e-05
1420.6073138960826	2.818382931264455e-05
1440.1955185714814	3.349654391578279e-05
1459.523048547473	3.981071705534977e-05
1479.5261786761762	4.731512589614803e-05
1500.2081830713646	5.623413251903491e-05
1521.5159934646615	6.683439175686148e-05
1543.0973777561821	7.943282347242821e-05
1564.287273224291	9.440608762859246e-05
1585.895555853732	0.00011220184543019629
1607.813214610863	0.0001333521432163324
1629.9617160840178	0.00015848931924611142
1651.6608286050487	0.00018836490894898024
1672.7305345775942	0.00022387211385683424
1693.7743840519463	0.0002660725059798809
1714.7837151640254	0.0003162277660168379
1735.75406225616	0.00037583740428844437
1755.674708077459	0.0004466835921509635
1775.483874195669	0.0005308844442309889
1795.4179610508177	0.000630957344480193
1815.4939073894882	0.0007498942093324559
1835.5961957346005	0.0008912509381337458
1854.9940576636384	0.0010592537251772895
1874.6971274393884	0.0012589254117941673
1894.830165769491	0.0014962356560944345
1915.4946898208104	0.0017782794100389225
1936.2871739332636	0.0021134890398366475
1957.2693753879234	0.002511886431509582
1979.1710294935617	0.0029853826189179603
2002.0131258696808	0.0035481338923357567
2025.827398978834	0.004216965034285822
2049.9320463109198	0.0050118723362727255
2074.654841002214	0.005956621435290103
2100.2909953420667	0.00707945784384138
2126.871017564399	0.008413951416451957
2154.5      	0.01        
2181.582769003196	0.01188502227437019
2209.3007977042307	0.014125375446227554
2237.641381721643	0.016788040181225587
2266.4774146033465	0.01995262314968883
2295.023712543876	0.023713737056616554
2322.5034446661266	0.02818382931264455
2350.1074511504053	0.033496543915782793
2377.6971110501636	0.03981071705534969
2405.1271709078515	0.04731512589614813
2431.3042202228266	0.056234132519034905
2456.4935676603122	0.06683439175686148
2481.3075086484573	0.07943282347242821
2505.5364490442234	0.09440608762859228
2528.8930593655223	0.11220184543019629
2549.7345936803276	0.1333521432163324
2569.2291311082504	0.1584893192461114
2587.2099784888815	0.18836490894898023
2603.434714844347	0.22387211385683378
2617.554694817465	0.26607250597988086
2628.8776652548577	0.3162277660168379
2638.565398395847	0.3758374042884443
2646.6594753020922	0.4466835921509634
2653.2338862537963	0.5308844442309879
2658.1193349273794	0.630957344480193
2661.720192927072	0.7498942093324559
2664.4535430511655	0.8912509381337458
2666.4595186850484	1.0592537251772898
2667.950058669848	1.2589254117941662
2668.8031347114506	1.4962356560944328
2669.3588622263774	1.7782794100389228
2669.715743577063	2.1134890398366473
2669.9365716716984	2.511886431509582
2670.0970788538702	2.9853826189179573
2670.1      	3.548133892335753
2670.1      	4.216965034285823
2670.1      	5.011872336272725
2670.0875355373823	5.956621435290109
2670.008295141578	7.079457843841373
2670.0      	8.413951416451948
2670.0      	10.0        
