# T(K)	P(bar)
3022.7      	1e-08       
3022.2383618919907	1.1885022274370215e-08
3021.880996673696	1.4125375446227554e-08
3021.5318368182598	1.6788040181225588e-08
3021.1320694344936	1.9952623149688826e-08
3020.734488683233	2.3713737056616554e-08
3020.2083592340928	2.818382931264461e-08
3019.6123657857456	3.3496543915782795e-08
3018.9231162959136	3.981071705534969e-08
3018.105610626065	4.731512589614813e-08
3017.1651178363054	5.6234132519034905e-08
3016.043642368716	6.683439175686162e-08
3014.73891885267	7.94328234724282e-08
3013.1991810033774	9.440608762859226e-08
3011.3382722635697	1.1220184543019653e-07
3009.169010952171	1.333521432163324e-07
3006.6468127437893	1.584893192461114e-07
3003.6780043022236	1.883649089489802e-07
3000.1992330948174	2.2387211385683422e-07
2996.2105381871565	2.6607250597988136e-07
2991.550085651405	3.162277660168379e-07
2986.175450593834	3.7583740428844433e-07
2979.9803017496233	4.466835921509635e-07
2972.8878267882933	5.308844442309889e-07
2965.08686842241	6.309573444801942e-07
2956.63314966125	7.498942093324558e-07
2947.7067502166	8.912509381337459e-07
2938.6879990534094	1.0592537251772896e-06
2929.985760937013	1.2589254117941687e-06
2921.222343418735	1.4962356560944327e-06
2912.919911038398	1.7782794100389227e-06
2904.9190431492616	2.1134890398366474e-06
2896.7605572056573	2.511886431509582e-06
2887.3708870485757	2.9853826189179636e-06
2873.9883608775535	3.5481338923357534e-06
2855.523223841822	4.216965034285822e-06
2830.5892384469403	5.011872336272725e-06
2797.1706116818445	5.95662143529011e-06
2751.2111821151725	7.079457843841388e-06
2694.412387081883	8.413951416451948e-06
2640.3983621474067	1e-05       
2596.0815572697784	1.188502227437019e-05
2566.291543492328	1.4125375446227555e-05
2545.8335329184424	1.678804018122562e-05
2524.6954866470655	1.9952623149688786e-05
2498.415430717886	2.371373705661655e-05
2467.8550886607136	2.818382931264455e-05
2438.07622467268	3.349654391578279e-05
2416.900644021693	3.981071705534977e-05
2399.6828736091306	4.731512589614803e-05
2387.6456352419664	5.623413251903491e-05
2381.6      	6.683439175686148e-05
2381.6      	7.943282347242821e-05
2384.1772430402707	9.440608762859246e-05
2386.3952828176516	0.00011220184543019629
2387.0503571205545	0.0001333521432163324
2385.0310554119515	0.00015848931924611142
2379.13455744428	0.00018836490894898024
2369.2220894032916	0.00022387211385683424
2355.0012520480436	0.0002660725059798809
2335.9221664781317	0.0003162277660168379
2311.6601425919735	0.00037583740428844437
2285.073444083391	0.0004466835921509635
2254.299054949562	0.0005308844442309889
2215.2621304094046	0.000630957344480193
2165.327455418702	0.0007498942093324559
2103.659080814173	0.0008912509381337458
1938.3720920542037	0.0010592537251772895
1593.193211018266	0.0012589254117941673
1355.571371835651	0.0014962356560944345
1425.107401126315	0.0017782794100389225
1497.3672128327112	0.0021134890398366475
1571.9944015671706	0.002511886431509582
1628.8596382075793	0.0029853826189179603
1659.9198734635925	0.0035481338923357567
1664.3478482198243	0.004216965034285822
1671.992687826764	0.0050118723362727255
1679.9679235645804	0.005956621435290103
1688.861937860218	0.00707945784384138
1698.0865559876	0.008413951416451957
1705.9      	0.01        
1711.4396572961082	0.01188502227437019
1718.5750831576063	0.014125375446227554
1727.5731406342895	0.016788040181225587
1738.342814173478	0.01995262314968883
1749.7136236595384	0.023713737056616554
1763.2719567281927	0.02818382931264455
1779.7929379365917	0.033496543915782793
1798.2067670460303	0.03981071705534969
1817.1271163845017	0.04731512589614813
1836.3288441754266	0.056234132519034905
1858.890909801096	0.06683439175686148
1883.4148960800107	0.07943282347242821
1908.8154933018625	0.09440608762859228
1934.024850335638	0.11220184543019629
1959.4978367204003	0.1333521432163324
1985.2734255013615	0.1584893192461114
2010.7787297405184	0.18836490894898023
2035.6526474454076	0.22387211385683378
2059.8241385858296	0.26607250597988086
2083.2766223274257	0.3162277660168379
2106.8573886473437	0.3758374042884443
2130.753888139247	0.4466835921509634
2155.322790846513	0.5308844442309879
2180.931997603199	0.630957344480193
2207.2642312269486	0.7498942093324559
2234.2454411661465	0.8912509381337458
2261.547151136921	1.0592537251772898
2288.888107730945	1.2589254117941662
2314.247731876758	1.4962356560944328
2337.086145381856	1.7782794100389228
2357.0650247026924	2.1134890398366473
2373.625733735853	2.511886431509582
2386.4663083096393	2.9853826189179573
2394.325003150669	3.548133892335753
2399.9028415742428	4.216965034285823
2403.607560845734	5.011872336272725
2405.89943140188	5.956621435290109
2407.167277734754	7.079457843841373
2407.782643621256	8.413951416451948
2408.3      	10.0        
