# T(K)	P(bar)
3023.5      	1e-08       
3022.0381459913046	1.1885022274370215e-08
3021.6547508315757	1.4125375446227554e-08
3021.599102090956	1.6788040181225588e-08
3021.359241660696	1.9952623149688826e-08
3021.12069320994	2.3713737056616554e-08
3020.8190624194817	2.818382931264461e-08
3020.457728616091	3.3496543915782795e-08
3020.033869777548	3.981071705534969e-08
3019.5449395318715	4.731512589614813e-08
3018.996318737845	5.6234132519034905e-08
3018.3261854212296	6.683439175686162e-08
3017.5348948544097	7.94328234724282e-08
3016.6169283932136	9.440608762859226e-08
3015.5625224457385	1.1220184543019653e-07
3014.245470935247	1.333521432163324e-07
3012.7510663198764	1.584893192461114e-07
3010.957812187091	1.883649089489802e-07
3008.8035245187866	2.2387211385683422e-07
3006.3305336760372	2.6607250597988136e-07
3003.5008716246225	3.162277660168379e-07
3000.153023661868	3.7583740428844433e-07
2996.30409187046	4.466835921509635e-07
2991.945665802533	5.308844442309889e-07
2986.9026220104465	6.309573444801942e-07
2981.1560303986935	7.498942093324558e-07
2974.794601451819	8.912509381337459e-07
2968.1893696779566	1.0592537251772896e-06
2961.7449211831968	1.2589254117941687e-06
2953.9896844413583	1.4962356560944327e-06
2945.919911038398	1.7782794100389227e-06
2938.2276926880972	2.1134890398366474e-06
2931.419991490564	2.511886431509582e-06
2925.8022401145327	2.9853826189179636e-06
2921.0193049966188	3.5481338923357534e-06
2915.7016939349787	4.216965034285822e-06
2909.5073253138603	5.011872336272725e-06
2902.0416578737513	5.95662143529011e-06
2892.7705315646126	7.079457843841388e-06
2882.216076663636	8.413951416451948e-06
2871.9024567788897	1e-05       
2863.2878533423204	1.188502227437019e-05
2857.965487471228	1.4125375446227555e-05
2857.5750674221076	1.678804018122562e-05
2860.502969603421	1.9952623149688786e-05
2866.491326649809	2.371373705661655e-05
2874.0248610218523	2.818382931264455e-05
2879.928256755839	3.349654391578279e-05
2881.776307430834	3.981071705534977e-05
2884.599510910128	4.731512589614803e-05
2887.83471994709	5.623413251903491e-05
2890.5296383281525	6.683439175686148e-05
2890.688910536946	7.943282347242821e-05
2890.7      	9.440608762859246e-05
2893.9870277485425	0.00011220184543019629
2898.7464286301197	0.0001333521432163324
2902.5497393128717	0.00015848931924611142
2904.7510985541353	0.00018836490894898024
2908.6781527740504	0.00022387211385683424
2912.3840216019917	0.0002660725059798809
2914.379034435646	0.0003162277660168379
2913.1205472302236	0.00037583740428844437
2908.934886240534	0.0004466835921509635
2903.739546976801	0.0005308844442309889
2895.0819522191464	0.000630957344480193
2881.1547710082473	0.0007498942093324559
2860.8122162685713	0.0008912509381337458
2833.913482717205	0.0010592537251772895
2799.918459333643	0.0012589254117941673
2757.00896268567	0.0014962356560944345
2703.417397671681	0.0017782794100389225
2638.272884710991	0.0021134890398366475
2556.184231499809	0.002511886431509582
2440.386808217376	0.0029853826189179603
2135.934004376901	0.0035481338923357567
1523.2896627741586	0.004216965034285822
1599.8940759783923	0.0050118723362727255
1618.1430511996184	0.005956621435290103
1626.1552755955443	0.00707945784384138
1639.4285391127996	0.008413951416451957
1652.8      	0.01        
1665.8797463935891	0.01188502227437019
1680.2574088310282	0.014125375446227554
1695.8955883603928	0.016788040181225587
1712.6210143167675	0.01995262314968883
1729.7169866209845	0.023713737056616554
1746.8622701138938	0.02818382931264455
1764.9352093205005	0.033496543915782793
1783.6344554164389	0.03981071705534969
1802.5405927917282	0.04731512589614813
1820.88020219204	0.056234132519034905
1839.911779503893	0.06683439175686148
1859.5974183485798	0.07943282347242821
1879.730783701831	0.09440608762859228
1900.1688976876671	0.11220184543019629
1920.161332456314	0.1333521432163324
1939.9450248530002	0.1584893192461114
1959.1796903161826	0.18836490894898023
1977.5272823541823	0.22387211385683378
1994.5988965589688	0.26607250597988086
2009.6521866168441	0.3162277660168379
2023.777693105109	0.3758374042884443
2036.937167017908	0.4466835921509634
2049.1313560569592	0.5308844442309879
2060.163014352147	0.630957344480193
2070.0623706547976	0.7498942093324559
2079.403710994031	0.8912509381337458
2088.1185193949914	1.0592537251772898
2096.09136778245	1.2589254117941662
2102.760871380432	1.4962356560944328
2108.4269156033383	1.7782794100389228
2113.167640810078	2.1134890398366473
2116.9217184188687	2.511886431509582
2119.6503405157982	2.9853826189179573
2121.2099016139937	3.548133892335753
2122.1814754166926	4.216965034285823
2122.6975058882967	5.011872336272725
2122.9249289252352	5.956621435290109
2123.083409716844	7.079457843841373
2123.1689490887507	8.413951416451948
2123.2      	10.0        
