# T(K)	P(bar)
2992.9      	1e-08       
2961.046970547377	1.1885022274370215e-08
2938.1407970954406	1.4125375446227554e-08
2915.59763836897	1.6788040181225588e-08
2887.6285881167173	1.9952623149688826e-08
2856.7763218188747	2.3713737056616554e-08
2826.1467107384315	2.818382931264461e-08
2796.61418897465	3.3496543915782795e-08
2769.6042423590425	3.981071705534969e-08
2746.508857050335	4.731512589614813e-08
2729.658361233809	5.6234132519034905e-08
2717.20018086258	6.683439175686162e-08
2706.9798194002447	7.94328234724282e-08
2698.1136524067238	9.440608762859226e-08
2689.66190730234	1.1220184543019653e-07
2681.2947565298027	1.333521432163324e-07
2672.4361846552815	1.584893192461114e-07
2663.115202870692	1.883649089489802e-07
2653.3820673989394	2.2387211385683422e-07
2643.3305562316355	2.6607250597988136e-07
2633.5354242250555	3.162277660168379e-07
2623.6713256825074	3.7583740428844433e-07
2613.705954258075	4.466835921509635e-07
2603.570883661395	5.308844442309889e-07
2593.3272009587204	6.309573444801942e-07
2582.8739491345045	7.498942093324558e-07
2571.7636683760657	8.912509381337459e-07
2559.5885170285146	1.0592537251772896e-06
2545.8444518244105	1.2589254117941687e-06
2531.264606749754	1.4962356560944327e-06
2515.6986843031736	1.7782794100389227e-06
2498.0476078731544	2.1134890398366474e-06
2477.62396426037	2.511886431509582e-06
2454.029408481037	2.9853826189179636e-06
2427.6296922393053	3.5481338923357534e-06
2396.517158146916	4.216965034285822e-06
2358.8589165533795	5.011872336272725e-06
2312.7626960041857	5.95662143529011e-06
2256.5812553787196	7.079457843841388e-06
2188.645820124263	8.413951416451948e-06
2108.6583257506823	1e-05       
2023.9158499397597	1.188502227437019e-05
1946.272301558825	1.4125375446227555e-05
1899.5780636840784	1.678804018122562e-05
1870.0171458432167	1.9952623149688786e-05
1848.865340885207	2.371373705661655e-05
1833.3563402565458	2.818382931264455e-05
1822.3116976380036	3.349654391578279e-05
1816.5365392786437	3.981071705534977e-05
1813.2174310413698	4.731512589614803e-05
1811.7600273222351	5.623413251903491e-05
1811.6481916407624	6.683439175686148e-05
1812.44455268473	7.943282347242821e-05
1813.9318016890393	9.440608762859246e-05
1815.8446931698584	0.00011220184543019629
1818.0389286054694	0.0001333521432163324
1820.3675778352192	0.00015848931924611142
1822.7261770222879	0.00018836490894898024
1825.2468916644302	0.00022387211385683424
1827.8794325479932	0.0002660725059798809
1830.5565616874055	0.0003162277660168379
1833.2129887809706	0.00037583740428844437
1835.8484049596639	0.0004466835921509635
1838.4337316868389	0.0005308844442309889
1840.9959315620085	0.000630957344480193
1843.513216022648	0.0007498942093324559
1845.915879968279	0.0008912509381337458
1848.077117518182	0.0010592537251772895
1850.1562265352732	0.0012589254117941673
1852.2123903113104	0.0014962356560944345
1854.2618930261544	0.0017782794100389225
1856.0802471500572	0.0021134890398366475
1857.450107624889	0.002511886431509582
1858.5522970208547	0.0029853826189179603
1859.4030574559374	0.0035481338923357567
1860.0055902879574	0.004216965034285822
1860.0835988553752	0.0050118723362727255
1859.9775399314503	0.005956621435290103
1860.0594077986957	0.00707945784384138
1860.5139393388	0.008413951416451957
1861.4      	0.01        
1862.4771555853545	0.01188502227437019
1864.7162791051621	0.014125375446227554
1868.3515908172305	0.016788040181225587
1873.514061274302	0.01995262314968883
1880.03438559498	0.023713737056616554
1888.9578930204186	0.02818382931264455
1900.93104416003	0.033496543915782793
1916.3513903052133	0.03981071705534969
1935.575465910692	0.04731512589614813
1959.244534452975	0.056234132519034905
1989.285413220083	0.06683439175686148
2025.9445064146755	0.07943282347242821
2069.552761342709	0.09440608762859228
2120.2364045456065	0.11220184543019629
2177.7436010809038	0.1333521432163324
2237.122932885334	0.1584893192461114
2294.034503207596	0.18836490894898023
2344.587745742346	0.22387211385683378
2384.873564309716	0.26607250597988086
2411.875750702803	0.3162277660168379
2431.814457195821	0.3758374042884443
2445.8639342677825	0.4466835921509634
2455.3770218594923	0.5308844442309879
2461.365636362594	0.630957344480193
2465.186560948142	0.7498942093324559
2467.908773656481	0.8912509381337458
2469.7627779092486	1.0592537251772898
2470.9364063053445	1.2589254117941662
2471.556825244691	1.4962356560944328
2471.9392414842514	1.7782794100389228
2472.177162384709	2.1134890398366473
2472.318285835849	2.511886431509582
2472.3985394269353	2.9853826189179573
2472.4      	3.548133892335753
2472.4      	4.216965034285823
2472.3674980372343	5.011872336272725
2472.3      	5.956621435290109
2472.3      	7.079457843841373
2472.3      	8.413951416451948
2472.3      	10.0        
