# T(K)	P(bar)
3051.2      	1e-08       
3050.4306031533183	1.1885022274370215e-08
3049.433488357935	1.4125375446227554e-08
3048.2618778184315	1.6788040181225588e-08
3046.9146916248737	1.9952623149688826e-08
3045.2448524695783	2.3713737056616554e-08
3043.4143745168903	2.818382931264461e-08
3041.1979174197645	3.3496543915782795e-08
3038.57553029488	3.981071705534969e-08
3035.546039847745	4.731512589614813e-08
3032.019191886146	5.6234132519034905e-08
3028.020869702797	6.683439175686162e-08
3023.436215984346	7.94328234724282e-08
3018.2104440541984	9.440608762859226e-08
3012.3192259147395	1.1220184543019653e-07
3005.9663892170724	1.333521432163324e-07
2999.187245123449	1.584893192461114e-07
2992.0298666692097	1.883649089489802e-07
2984.642604232567	2.2387211385683422e-07
2977.3831795006254	2.6607250597988136e-07
2970.8722490937375	3.162277660168379e-07
2964.9264718185755	3.7583740428844433e-07
2959.563200077322	4.466835921509635e-07
2954.717233605381	5.308844442309889e-07
2950.2257727280544	6.309573444801942e-07
2945.551550714741	7.498942093324558e-07
2940.2318341880327	8.912509381337459e-07
2933.902406574758	1.0592537251772896e-06
2926.067440444644	1.2589254117941687e-06
2915.2876613734884	1.4962356560944327e-06
2900.897736158488	1.7782794100389227e-06
2881.7500354095578	2.1134890398366474e-06
2856.6673798245183	2.511886431509582e-06
2824.4856897989657	2.9853826189179636e-06
2788.719292393943	3.5481338923357534e-06
2755.5266117117803	4.216965034285822e-06
2729.0920466011426	5.011872336272725e-06
2711.568008294286	5.95662143529011e-06
2699.285746944572	7.079457843841388e-06
2686.623400356115	8.413951416451948e-06
2672.9523202911737	1e-05       
2658.6461909482687	1.188502227437019e-05
2644.3541840447574	1.4125375446227555e-05
2631.392238413975	1.678804018122562e-05
2619.265472522357	1.9952623149688786e-05
2607.5828329649758	2.371373705661655e-05
2596.1327028763953	2.818382931264455e-05
2584.5281047353133	3.349654391578279e-05
2573.285796462426	3.981071705534977e-05
2562.135840262483	4.731512589614803e-05
2550.616031414376	5.623413251903491e-05
2537.954720497362	6.683439175686148e-05
2522.6645884531845	7.943282347242821e-05
2503.201348295844	9.440608762859246e-05
2478.070364636693	0.00011220184543019629
2444.6232136577196	0.0001333521432163324
2400.23164752178	0.00015848931924611142
2344.0969868695474	0.00018836490894898024
2275.021976072787	0.00022387211385683424
2190.310682712243	0.0002660725059798809
2092.1980152859564	0.0003162277660168379
1988.0057973042797	0.00037583740428844437
1918.167268568908	0.0004466835921509635
1872.4214060665547	0.0005308844442309889
1842.2093274455524	0.000630957344480193
1822.6654910837403	0.0007498942093324559
1810.3318161628347	0.0008912509381337458
1802.7784542233758	0.0010592537251772895
1796.909433661817	0.0012589254117941673
1792.4564314082174	0.0014962356560944345
1789.1925603606012	0.0017782794100389225
1787.0579707368893	0.0021134890398366475
1785.2439720369148	0.002511886431509582
1783.7175792204557	0.0029853826189179603
1782.4700316341018	0.0035481338923357567
1781.4217359685965	0.004216965034285822
1780.3296160247478	0.0050118723362727255
1779.3040095544275	0.005956621435290103
1778.9992597483695	0.00707945784384138
1779.7278786775998	0.008413951416451957
1781.5      	0.01        
1783.9620699093814	0.01188502227437019
1788.149302389292	0.014125375446227554
1794.228733089412	0.016788040181225587
1802.108058554238	0.01995262314968883
1810.9343512322291	0.023713737056616554
1821.0411745522326	0.02818382931264455
1833.1403184993394	0.033496543915782793
1847.3099857113193	0.03981071705534969
1863.501263885922	0.04731512589614813
1881.4490012905007	0.056234132519034905
1902.96206652065	0.06683439175686148
1927.3954366536757	0.07943282347242821
1954.338906034091	0.09440608762859228
1983.3873925321143	0.11220184543019629
2014.5725031364902	0.1333521432163324
2047.4336136392226	0.1584893192461114
2081.3185748986098	0.18836490894898023
2115.638549370261	0.22387211385683378
2149.702003881681	0.26607250597988086
2181.6281086224567	0.3162277660168379
2211.983980502994	0.3758374042884443
2240.0356717255236	0.4466835921509634
2265.1400244518936	0.5308844442309879
2286.257770331253	0.630957344480193
2303.137284424662	0.7498942093324559
2317.0497173867257	0.8912509381337458
2328.087815752641	1.0592537251772898
2336.4912504427534	1.2589254117941662
2341.4546019575305	1.4962356560944328
2344.6933629872005	1.7782794100389228
2346.833042654735	2.1134890398366473
2348.20114419434	2.511886431509582
2349.0839336962877	2.9853826189179573
2349.4774754034984	3.548133892335753
2349.7604918055645	4.216965034285823
2349.9      	5.011872336272725
2349.9      	5.956621435290109
2349.9      	7.079457843841373
2349.9      	8.413951416451948
2349.8      	10.0        
