# T(K)	P(bar)
3056.7      	1e-08       
3055.85366346865	1.1885022274370215e-08
3054.833488357935	1.4125375446227554e-08
3053.5946125457353	1.6788040181225588e-08
3052.114691624874	1.9952623149688826e-08
3050.4448524695786	2.3713737056616554e-08
3048.544140121761	2.818382931264461e-08
3046.249463142983	3.3496543915782795e-08
3043.547841924472	3.981071705534969e-08
3040.4381740665835	4.731512589614813e-08
3036.8329517058382	5.6234132519034905e-08
3032.757112527378	6.683439175686162e-08
3028.093933698383	7.94328234724282e-08
3022.8322187931817	9.440608762859226e-08
3017.02363503877	1.1220184543019653e-07
3010.8257455776316	1.333521432163324e-07
3004.3170318594734	1.584893192461114e-07
2997.5472946260347	1.883649089489802e-07
2990.6707269373965	2.2387211385683422e-07
2984.0494933906803	2.6607250597988136e-07
2978.374692664796	3.162277660168379e-07
2973.287705290738	3.7583740428844433e-07
2968.764314818745	4.466835921509635e-07
2964.699025380064	5.308844442309889e-07
2960.8379449767485	6.309573444801942e-07
2956.71612686223	7.498942093324558e-07
2951.9899893455085	8.912509381337459e-07
2946.2717029324076	1.0592537251772896e-06
2939.003846749988	1.2589254117941687e-06
2928.8444866181794	1.4962356560944327e-06
2915.4350813533683	1.7782794100389227e-06
2898.007471180192	2.1134890398366474e-06
2875.5353849301796	2.511886431509582e-06
2846.7243457302457	2.9853826189179636e-06
2815.6244923166237	3.5481338923357534e-06
2787.4039341656726	4.216965034285822e-06
2764.7395917447516	5.011872336272725e-06
2748.992368621401	5.95662143529011e-06
2738.13643439617	7.079457843841388e-06
2727.4850257523867	8.413951416451948e-06
2716.3524112829846	1e-05       
2704.9819370545115	1.188502227437019e-05
2693.8509917921997	1.4125375446227555e-05
2684.246658583849	1.678804018122562e-05
2675.893565859254	1.9952623149688786e-05
2668.507227791826	2.371373705661655e-05
2661.9133202880726	2.818382931264455e-05
2655.7164070973104	3.349654391578279e-05
2650.2492571837824	3.981071705534977e-05
2645.447033346648	4.731512589614803e-05
2641.115348358498	5.623413251903491e-05
2636.866392663197	6.683439175686148e-05
2631.849318086201	7.943282347242821e-05
2625.629613074939	9.440608762859246e-05
2618.668279081599	0.00011220184543019629
2610.1524998438817	0.0001333521432163324
2599.2015641227717	0.00015848931924611142
2585.9934086751878	0.00018836490894898024
2571.6692232450637	0.00022387211385683424
2555.4836884380447	0.0002660725059798809
2537.0392109477143	0.0003162277660168379
2515.983100971265	0.00037583740428844437
2492.2643553630255	0.0004466835921509635
2462.960828038317	0.0005308844442309889
2426.256027752418	0.000630957344480193
2380.576281073812	0.0007498942093324559
2324.7543887369857	0.0008912509381337458
2258.409356936357	0.0010592537251772895
2182.5855395338585	0.0012589254117941673
2101.3543537972187	0.0014962356560944345
2021.7347568302785	0.0017782794100389225
1961.5709529915828	0.0021134890398366475
1921.2851458267153	0.002511886431509582
1889.8055596573784	0.0029853826189179603
1865.0290723199664	0.0035481338923357567
1845.103678377118	0.004216965034285822
1828.4098449497192	0.0050118723362727255
1814.3684341047326	0.005956621435290103
1803.754656982282	0.00707945784384138
1797.0414877988	0.008413951416451957
1793.9      	0.01        
1793.2075428379865	0.01188502227437019
1795.3542857577706	0.014125375446227554
1799.9569782714952	0.016788040181225587
1806.3276473874032	0.01995262314968883
1812.9274878583335	0.023713737056616554
1819.7508611665316	0.02818382931264455
1827.6330618924326	0.033496543915782793
1836.3841625969937	0.03981071705534969
1845.6124306147028	0.04731512589614813
1854.703860915712	0.056234132519034905
1865.2897617340682	0.06683439175686148
1877.2497303259681	0.07943282347242821
1890.4759035390782	0.09440608762859228
1904.8568753630689	0.11220184543019629
1920.9125758722523	0.1333521432163324
1938.6705588906948	0.1584893192461114
1957.9406881650707	0.18836490894898023
1978.5882026404017	0.22387211385683378
2000.4462507343806	0.26607250597988086
2022.9741787563676	0.3162277660168379
2045.6451339504397	0.3758374042884443
2068.1709898115487	0.4466835921509634
2090.360472395564	0.5308844442309879
2111.635813393427	0.630957344480193
2130.9265331831757	0.7498942093324559
2148.7358810677947	0.8912509381337458
2164.950075686784	1.0592537251772898
2179.555313496196	1.2589254117941662
2190.722854404444	1.4962356560944328
2199.6997097037274	1.7782794100389228
2206.93217061894	2.1134890398366473
2212.6057209716996	2.511886431509582
2217.0196684814387	2.9853826189179573
2219.742327824489	3.548133892335753
2221.669945370428	4.216965034285823
2222.9900235531873	5.011872336272725
2223.84985785047	5.956621435290109
2224.1668194336885	7.079457843841373
2224.3378981775018	8.413951416451948
2224.5      	10.0        
