# T(K)	P(bar)
3056.7      	1e-08       
3055.85366346865	1.1885022274370215e-08
3054.833488357935	1.4125375446227554e-08
3053.5946125457353	1.6788040181225588e-08
3052.114691624874	1.9952623149688826e-08
3050.4448524695786	2.3713737056616554e-08
3048.473905726631	2.818382931264461e-08
3046.1979174197645	3.3496543915782795e-08
3043.547841924472	3.981071705534969e-08
3040.4381740665835	4.731512589614813e-08
3036.8329517058382	5.6234132519034905e-08
3032.757112527378	6.683439175686162e-08
3028.093933698383	7.94328234724282e-08
3022.8322187931817	9.440608762859226e-08
3017.02363503877	1.1220184543019653e-07
3010.8257455776316	1.333521432163324e-07
3004.3170318594734	1.584893192461114e-07
2997.5472946260347	1.883649089489802e-07
2990.6707269373965	2.2387211385683422e-07
2984.0494933906803	2.6607250597988136e-07
2978.374692664796	3.162277660168379e-07
2973.287705290738	3.7583740428844433e-07
2968.764314818745	4.466835921509635e-07
2964.699025380064	5.308844442309889e-07
2960.8379449767485	6.309573444801942e-07
2956.71612686223	7.498942093324558e-07
2951.9899893455085	8.912509381337459e-07
2946.2475177384576	1.0592537251772896e-06
2938.9083975381564	1.2589254117941687e-06
2928.826589773766	1.4962356560944327e-06
2915.4350813533683	1.7782794100389227e-06
2897.9688899878374	2.1134890398366474e-06
2875.4536707660286	2.511886431509582e-06
2846.722885157181	2.9853826189179636e-06
2815.548997235924	3.5481338923357534e-06
2787.3039341656727	4.216965034285822e-06
2764.6395917447517	5.011872336272725e-06
2748.892368621401	5.95662143529011e-06
2738.03643439617	7.079457843841388e-06
2727.385025752387	8.413951416451948e-06
2716.252411282984	1e-05       
2704.8819370545116	1.188502227437019e-05
2693.744089286445	1.4125375446227555e-05
2684.06167206827	1.678804018122562e-05
2675.756127725992	1.9952623149688786e-05
2668.4072277918262	2.371373705661655e-05
2661.8133202880726	2.818382931264455e-05
2655.61640709731	3.349654391578279e-05
2650.1492571837825	3.981071705534977e-05
2645.290947714693	4.731512589614803e-05
2640.915348358498	5.623413251903491e-05
2636.6515734991203	6.683439175686148e-05
2631.554862817728	7.943282347242821e-05
2625.4012031593907	9.440608762859246e-05
2618.418475630863	0.00011220184543019629
2609.823571271279	0.0001333521432163324
2598.801564122772	0.00015848931924611142
2585.5934086751877	0.00018836490894898024
2571.204165921899	0.00022387211385683424
2554.940175716045	0.0002660725059798809
2536.4621370594537	0.0003162277660168379
2515.4764545723842	0.00037583740428844437
2491.602684483045	0.0004466835921509635
2462.2608280383165	0.0005308844442309889
2425.481282029792	0.000630957344480193
2379.659173873057	0.0007498942093324559
2323.7571927380427	0.0008912509381337458
2257.1868086308373	0.0010592537251772895
2181.285539533859	0.0012589254117941673
2100.3668116092613	0.0014962356560944345
2021.4916900968335	0.0017782794100389225
1961.7231806328996	0.0021134890398366475
1921.3498390473167	0.002511886431509582
1889.483386395213	0.0029853826189179603
1864.1767792280134	0.0035481338923357567
1843.7813172252886	0.004216965034285822
1826.7754495282186	0.0050118723362727255
1812.484744001908	0.005956621435290103
1801.6351011332604	0.00707945784384138
1794.7220387680002	0.008413951416451957
1791.5      	0.01        
1790.7306031533183	0.01188502227437019
1792.8542857577706	0.014125375446227554
1797.4569782714952	0.016788040181225587
1803.8412335005046	0.01995262314968883
1810.5205901216868	0.023713737056616554
1817.5615643519202	0.02818382931264455
1825.629970445996	0.033496543915782793
1834.594916078628	0.03981071705534969
1844.1438937393477	0.04731512589614813
1853.5488216369438	0.056234132519034905
1864.5085476111628	0.06683439175686148
1876.8188594698192	0.07943282347242821
1890.3847772339964	0.09440608762859228
1905.165661427743	0.11220184543019629
1921.5301254082572	0.1333521432163324
1939.5998449994725	0.1584893192461114
1959.1494021434833	0.18836490894898023
1980.020233316609	0.22387211385683378
2002.0378292068945	0.26607250597988086
2024.6471281719182	0.3162277660168379
2047.3451339504395	0.3758374042884443
2069.840878337406	0.4466835921509634
2091.9400244518934	0.5308844442309879
2113.0577703312533	0.630957344480193
2132.193797141036	0.7498942093324559
2149.89111167311	0.8912509381337458
2166.025890492834	1.0592537251772898
2180.555313496196	1.2589254117941662
2191.722854404444	1.4962356560944328
2200.6398993326648	1.7782794100389228
2207.83217061894	2.1134890398366473
2213.4691493000014	2.511886431509582
2217.722589627568	2.9853826189179573
2220.4423278244894	3.548133892335753
2222.42344263895	4.216965034285823
2223.7575215904217	5.011872336272725
2224.5623223130874	5.956621435290109
2224.9585242921107	7.079457843841373
2225.0689490887507	8.413951416451948
2225.2      	10.0        
