# T(K)	P(bar)
3048.3      	1e-08       
3037.451504461788	1.1885022274370215e-08
3025.3303652846776	1.4125375446227554e-08
3012.450615002573	1.6788040181225588e-08
2999.339808016902	1.9952623149688826e-08
2986.6967401268066	2.3713737056616554e-08
2976.1183566575082	2.818382931264461e-08
2967.3030265986035	3.3496543915782795e-08
2960.040307108126	3.981071705534969e-08
2953.7628717259404	4.731512589614813e-08
2947.414545395063	5.6234132519034905e-08
2939.8605252826887	6.683439175686162e-08
2930.534173680989	7.94328234724282e-08
2918.9023217219383	9.440608762859226e-08
2904.3576777442186	1.1220184543019653e-07
2885.299167651217	1.333521432163324e-07
2859.963873861808	1.584893192461114e-07
2828.2305233100687	1.883649089489802e-07
2790.3958554669584	2.2387211385683422e-07
2748.035915547605	2.6607250597988136e-07
2713.7022571576736	3.162277660168379e-07
2688.5344815670787	3.7583740428844433e-07
2670.5304920251046	4.466835921509635e-07
2656.561924787978	5.308844442309889e-07
2643.1663397152497	6.309573444801942e-07
2629.221020165293	7.498942093324558e-07
2614.3699680365257	8.912509381337459e-07
2597.5295163185715	1.0592537251772896e-06
2577.243982465624	1.2589254117941687e-06
2555.8395290581493	1.4962356560944327e-06
2534.0932857313323	1.7782794100389227e-06
2509.605232214771	2.1134890398366474e-06
2481.413666511311	2.511886431509582e-06
2449.8740052144476	2.9853826189179636e-06
2422.650236513008	3.5481338923357534e-06
2397.0948631472297	4.216965034285822e-06
2374.274509308596	5.011872336272725e-06
2354.9071074764984	5.95662143529011e-06
2339.059028315577	7.079457843841388e-06
2325.8165530898623	8.413951416451948e-06
2314.6969062784347	1e-05       
2305.762931862836	1.188502227437019e-05
2298.8375321144504	1.4125375446227555e-05
2293.6059034562427	1.678804018122562e-05
2288.8462879957233	1.9952623149688786e-05
2284.8330681770412	2.371373705661655e-05
2281.3315071888237	2.818382931264455e-05
2277.5340675697094	3.349654391578279e-05
2273.2219493280536	3.981071705534977e-05
2268.298348291013	4.731512589614803e-05
2262.53056010582	5.623413251903491e-05
2255.673626100147	6.683439175686148e-05
2247.4711073472813	7.943282347242821e-05
2238.309189865764	9.440608762859246e-05
2227.7781065448244	0.00011220184543019629
2215.508571221979	0.0001333521432163324
2200.903973624115	0.00015848931924611142
2182.428279992078	0.00018836490894898024
2159.0069432031655	0.00022387211385683424
2129.7681694820844	0.0002660725059798809
2094.2472002306467	0.0003162277660168379
2052.6752594904788	0.00037583740428844437
2012.4464066451312	0.0004466835921509635
1977.1270963514778	0.0005308844442309889
1947.913395883544	0.000630957344480193
1925.5272382467488	0.0007498942093324559
1909.2692122146457	0.0008912509381337458
1898.2402296405833	0.0010592537251772895
1889.3315815360543	0.0012589254117941673
1882.1253206284773	0.0014962356560944345
1876.239574107958	0.0017782794100389225
1871.654159360725	0.0021134890398366475
1867.5143703459341	0.002511886431509582
1863.7288861717948	0.0029853826189179603
1860.233948356329	0.0035481338923357567
1856.84284675396	0.004216965034285822
1853.2544526527433	0.0050118723362727255
1849.4384982862593	0.005956621435290103
1845.8660700633693	0.00707945784384138
1842.816529076	0.008413951416451957
1840.4      	0.01        
1838.7073269373002	0.01188502227437019
1838.6927574841845	0.014125375446227554
1840.5125707266177	0.016788040181225587
1844.1695112384796	0.01995262314968883
1849.2585448546185	0.023713737056616554
1856.2317987470499	0.02818382931264455
1865.25060170485	0.033496543915782793
1876.3301392653825	0.03981071705534969
1889.3944984206341	0.04731512589614813
1904.2856342584942	0.056234132519034905
1921.8829362234471	0.06683439175686148
1941.816217209947	0.07943282347242821
1963.8453227391417	0.09440608762859228
1987.7336364003122	0.11220184543019629
2013.5153862564052	0.1333521432163324
2040.9211067356114	0.1584893192461114
2069.535581351945	0.18836490894898023
2099.1338744937	0.22387211385683378
2129.687277486379	0.26607250597988086
2159.8232214803406	0.3162277660168379
2189.2268319298	0.3758374042884443
2217.116340570377	0.4466835921509634
2242.742264170248	0.5308844442309879
2264.647985642121	0.630957344480193
2281.836388487872	0.7498942093324559
2295.6706398079878	0.8912509381337458
2306.2943342010417	1.0592537251772898
2314.0593949255776	1.2589254117941662
2318.4798798684255	1.4962356560944328
2321.354121502949	1.7782794100389228
2323.255880270026	2.1134890398366473
2324.464572522642	2.511886431509582
2325.1868548424172	2.9853826189179573
2325.5019803227988	3.548133892335753
2325.6534972685213	4.216965034285823
2325.7      	5.011872336272725
2325.6875355373822	5.956621435290109
2325.608295141578	7.079457843841373
2325.531050911249	8.413951416451948
2325.4      	10.0        
