# T(K)	P(bar)
2984.2      	1e-08       
2949.423262529986	1.1885022274370215e-08
2914.197873296043	1.4125375446227554e-08
2878.565313643381	1.6788040181225588e-08
2843.8769298490583	1.9952623149688826e-08
2815.6486965095373	2.3713737056616554e-08
2796.413979564033	2.818382931264461e-08
2782.0803127595145	3.3496543915782795e-08
2771.5204094775013	3.981071705534969e-08
2763.292079695489	4.731512589614813e-08
2756.2383837722923	5.6234132519034905e-08
2749.3256113877155	6.683439175686162e-08
2742.252311977388	7.94328234724282e-08
2735.0402734914774	9.440608762859226e-08
2727.8082031046624	1.1220184543019653e-07
2721.0679983156742	1.333521432163324e-07
2714.704265279505	1.584893192461114e-07
2708.6546265252937	1.883649089489802e-07
2702.9590030232625	2.2387211385683422e-07
2697.7736996433036	2.6607250597988136e-07
2693.195984482506	3.162277660168379e-07
2688.691790189706	3.7583740428844433e-07
2684.30409187046	4.466835921509635e-07
2680.0683534645577	5.308844442309889e-07
2675.9708803834883	6.309573444801942e-07
2672.1479669675787	7.498942093324558e-07
2668.3510690551448	8.912509381337459e-07
2664.587481078304	1.0592537251772896e-06
2660.8724605915986	1.2589254117941687e-06
2656.994842220679	1.4962356560944327e-06
2652.9300503336676	1.7782794100389227e-06
2648.5237096510864	2.1134890398366474e-06
2643.693134833961	2.511886431509582e-06
2638.3963978222737	2.9853826189179636e-06
2633.090839431721	3.5481338923357534e-06
2627.5481966664574	4.216965034285822e-06
2621.924862606407	5.011872336272725e-06
2616.339952079392	5.95662143529011e-06
2610.872364768874	7.079457843841388e-06
2605.4046146986916	8.413951416451948e-06
2599.8942675159233	1e-05       
2594.2612957498527	1.188502227437019e-05
2588.2925794936064	1.4125375446227555e-05
2581.4211866290952	1.678804018122562e-05
2573.4058802590403	1.9952623149688786e-05
2564.3868445953267	2.371373705661655e-05
2554.026640576145	2.818382931264455e-05
2541.5821875070756	3.349654391578279e-05
2527.336796887321	3.981071705534977e-05
2512.026787977176	4.731512589614803e-05
2495.1865641979607	5.623413251903491e-05
2476.1209957305	6.683439175686148e-05
2453.6636142906145	7.943282347242821e-05
2427.1866506107153	9.440608762859246e-05
2395.1872678734403	0.00011220184543019629
2356.352856471431	0.0001333521432163324
2309.8935609757405	0.00015848931924611142
2258.711958616352	0.00018836490894898024
2208.7681412051916	0.00022387211385683424
2163.412308228106	0.0002660725059798809
2125.7904914498513	0.0003162277660168379
2098.5552993085794	0.00037583740428844437
2083.517924641918	0.0004466835921509635
2073.2956297806327	0.0005308844442309889
2065.299069620538	0.000630957344480193
2058.1116735343207	0.0007498942093324559
2051.143948091991	0.0008912509381337458
2045.410475130519	0.0010592537251772895
2039.5878080713276	0.0012589254117941673
2033.2503712540265	0.0014962356560944345
2026.0499480155822	0.0017782794100389225
2018.0650016454006	0.0021134890398366475
2009.455166963973	0.002511886431509582
2000.3690792949285	0.0029853826189179603
1991.2841065268383	0.0035481338923357567
1982.802464371792	0.004216965034285822
1975.8597018716123	0.0050118723362727255
1970.3588177378624	0.005956621435290103
1966.0863661640215	0.00707945784384138
1962.9554271376	0.008413951416451957
1960.7      	0.01        
1958.853447567964	0.01188502227437019
1956.8764783790223	0.014125375446227554
1954.6573882732107	0.016788040181225587
1952.1380721545577	0.01995262314968883
1949.434523045984	0.023713737056616554
1946.7417961704652	0.02818382931264455
1944.0525545894195	0.033496543915782793
1941.3309070356975	0.03981071705534969
1938.5089660970343	0.04731512589614813
1935.609113328609	0.056234132519034905
1932.7409845094999	0.06683439175686148
1930.0469668491914	0.07943282347242821
1927.6120820474432	0.09440608762859228
1925.4406940634478	0.11220184543019629
1923.3565406319672	0.1333521432163324
1921.3096402929443	0.1584893192461114
1919.2215741942866	0.18836490894898023
1917.0515705330977	0.22387211385683378
1914.8179013848078	0.26607250597988086
1912.8033151956806	0.3162277660168379
1910.9775330556758	0.3758374042884443
1909.418216413724	0.4466835921509634
1908.1670883661395	0.5308844442309879
1907.142720095872	0.630957344480193
1906.5354238525113	0.7498942093324559
1906.1656918159465	0.8912509381337458
1905.9516296121	1.0592537251772898
1905.8      	1.2589254117941662
1905.8      	1.4962356560944328
1905.8      	1.7782794100389228
1905.8      	2.1134890398366473
1905.818285835849	2.511886431509582
1905.8985394269353	2.9853826189179573
1905.9      	3.548133892335753
1905.9534972685215	4.216965034285823
1906.0325019627655	5.011872336272725
1906.1124644626175	5.956621435290109
1906.191704858422	7.079457843841373
1906.4068472662525	8.413951416451948
1906.5      	10.0        
