# T(K)	P(bar)
3018.6      	1e-08       
3017.4459047299774	1.1885022274370215e-08
3017.045249168424	1.4125375446227554e-08
3016.8654694546076	1.6788040181225588e-08
3016.5320694344937	1.9952623149688826e-08
3016.134488683233	2.3713737056616554e-08
3015.6785936292226	2.818382931264461e-08
3015.1123657857456	3.3496543915782795e-08
3014.4508046663223	3.981071705534969e-08
3013.7134764072266	4.731512589614813e-08
3012.851358016613	5.6234132519034905e-08
3011.807399544135	6.683439175686162e-08
3010.53891885267	7.94328234724282e-08
3009.0427304813447	9.440608762859226e-08
3007.340476825585	1.1220184543019653e-07
3005.2486891324506	1.333521432163324e-07
3002.8617061118016	1.584893192461114e-07
3000.0867182806364	1.883649089489802e-07
2996.8632944472315	2.2387211385683422e-07
2993.193695132184	2.6607250597988136e-07
2988.841883313608	3.162277660168379e-07
2983.830556717544	3.7583740428844433e-07
2978.091082068619	4.466835921509635e-07
2971.559394591141	5.308844442309889e-07
2964.3100191400176	6.309573444801942e-07
2956.596829871948	7.498942093324558e-07
2948.499213558129	8.912509381337459e-07
2940.6200733203073	1.0592537251772896e-06
2933.7040814293814	1.2589254117941687e-06
2926.957025463982	1.4962356560944327e-06
2920.9740325413472	1.7782794100389227e-06
2915.8780344205043	2.1134890398366474e-06
2911.5125648641497	2.511886431509582e-06
2907.1788709454963	2.9853826189179636e-06
2901.5133640282224	3.5481338923357534e-06
2894.564262221943	4.216965034285822e-06
2886.524784095782	5.011872336272725e-06
2877.579335560664	5.95662143529011e-06
2867.912007272502	7.079457843841388e-06
2860.005091124918	8.413951416451948e-06
2855.719381255687	1e-05       
2855.701322030921	1.188502227437019e-05
2859.7003453337597	1.4125375446227555e-05
2864.2292179035508	1.678804018122562e-05
2867.53991280278	1.9952623149688786e-05
2871.4654862645934	2.371373705661655e-05
2875.0824249201	2.818382931264455e-05
2875.3411317586692	3.349654391578279e-05
2871.4910261857626	3.981071705534977e-05
2869.8952293124107	4.731512589614803e-05
2870.0248975416184	5.623413251903491e-05
2871.1037341485335	6.683439175686148e-05
2871.6611868793107	7.943282347242821e-05
2872.702261182327	9.440608762859246e-05
2876.735651903691	0.00011220184543019629
2881.4703571862888	0.0001333521432163324
2884.1624348282176	0.00015848931924611142
2884.712774638534	0.00018836490894898024
2886.4914904022785	0.00022387211385683424
2887.5740508879994	0.0002660725059798809
2886.5161377425848	0.0003162277660168379
2881.8244784632448	0.00037583740428844437
2873.065595281117	0.0004466835921509635
2861.055547776093	0.0005308844442309889
2842.5891587156675	0.000630957344480193
2816.166297285193	0.0007498942093324559
2782.769268440922	0.0008912509381337458
2739.4641874883073	0.0010592537251772895
2682.131026697946	0.0012589254117941673
2609.223310518211	0.0014962356560944345
2496.8458046344153	0.0017782794100389225
2232.63104454385	0.0021134890398366475
1766.2299313507492	0.002511886431509582
1604.8929497517966	0.0029853826189179603
1667.422298237493	0.0035481338923357567
1692.5019119108392	0.004216965034285822
1709.2737539056561	0.0050118723362727255
1724.8623167521378	0.005956621435290103
1740.3508340857618	0.00707945784384138
1756.0120100367997	0.008413951416451957
1771.8      	0.01        
1786.649359140957	0.01188502227437019
1802.104917146789	0.014125375446227554
1818.1955883603928	0.016788040181225587
1834.9210143167675	0.01995262314968883
1852.0169866209844	0.023713737056616554
1869.1622701138938	0.02818382931264455
1886.9444836598097	0.033496543915782793
1905.1683251939871	0.03981071705534969
1923.5540691989545	0.04731512589614813
1941.0315602086534	0.056234132519034905
1957.8715498904876	0.06683439175686148
1974.2410217644788	0.07943282347242821
1989.90655197298	0.09440608762859228
2004.6712112324933	0.11220184543019629
2017.7164678962051	0.1333521432163324
2030.084836715139	0.1584893192461114
2041.7370809997835	0.18836490894898023
2052.6179326010606	0.22387211385683378
2062.6694437683645	0.26607250597988086
2071.5162333727844	0.3162277660168379
2079.7531436989425	0.3758374042884443
2087.2895867762345	0.4466835921509634
2094.046349943986	0.5308844442309879
2099.7985717693336	0.630957344480193
2104.38297720098	0.7498942093324559
2108.225083971433	0.8912509381337458
2111.2771854305975	1.0592537251772898
2113.4728126106884	1.2589254117941662
2114.713650489383	1.4962356560944328
2115.478482968503	1.7782794100389228
2115.954324769418	2.1134890398366473
2116.2182858358487	2.511886431509582
2116.2985394269353	2.9853826189179573
2116.3754950806997	3.548133892335753
2116.4      	4.216965034285823
2116.4      	5.011872336272725
2116.4      	5.956621435290109
2116.4      	7.079457843841373
2116.468949088751	8.413951416451948
2116.5      	10.0        
