# T(K)	P(bar)
3057.4      	1e-08       
3055.630387252632	1.1885022274370215e-08
3053.56697671587	1.4125375446227554e-08
3051.122857727819	1.6788040181225588e-08
3048.215797136647	1.9952623149688826e-08
3044.796602675803	2.3713737056616554e-08
3040.918045848392	2.818382931264461e-08
3036.492743393093	3.3496543915782795e-08
3031.434125700987	3.981071705534969e-08
3025.6628717259405	4.731512589614813e-08
3019.314545395063	5.6234132519034905e-08
3012.5893685631345	6.683439175686162e-08
3005.594594263351	7.94328234724282e-08
2998.4402734914775	9.440608762859226e-08
2991.2192259147396	1.1220184543019653e-07
2984.866389217072	1.333521432163324e-07
2979.293625487579	1.584893192461114e-07
2974.4793863813775	1.883649089489802e-07
2970.3632944472315	2.2387211385683422e-07
2966.693695132184	2.6607250597988136e-07
2962.9254786380134	3.162277660168379e-07
2958.5387265154795	3.7583740428844433e-07
2953.2513050169036	4.466835921509635e-07
2946.7673788446223	5.308844442309889e-07
2938.8088253602364	6.309573444801942e-07
2929.138525281993	7.498942093324558e-07
2917.8159744292207	8.912509381337459e-07
2904.2904056281673	1.0592537251772896e-06
2887.666736406464	1.2589254117941687e-06
2866.6500448360816	1.4962356560944327e-06
2845.7110101840867	1.7782794100389227e-06
2828.0711289532587	2.1134890398366474e-06
2815.627418116979	2.511886431509582e-06
2808.7256092835687	2.9853826189179636e-06
2804.3722754808173	3.5481338923357534e-06
2800.111147499843	4.216965034285822e-06
2796.494933265969	5.011872336272725e-06
2793.9257818224146	5.95662143529011e-06
2792.1824931147135	7.079457843841388e-06
2791.3794582012424	8.413951416451948e-06
2792.4222929936304	1e-05       
2795.280994808324	1.188502227437019e-05
2799.5141503452683	1.4125375446227555e-05
2804.1991909347075	1.678804018122562e-05
2809.2916450714424	1.9952623149688786e-05
2816.155692400782	2.371373705661655e-05
2824.336985622353	2.818382931264455e-05
2831.8941891861296	3.349654391578279e-05
2838.0543581027805	3.981071705534977e-05
2845.240306299572	4.731512589614803e-05
2852.894337435798	5.623413251903491e-05
2860.2225223212604	6.683439175686148e-05
2865.717413524637	7.943282347242821e-05
2869.9658645604063	9.440608762859246e-05
2875.1854553544267	0.00011220184543019629
2879.854642895879	0.0001333521432163324
2882.092968865912	0.00015848931924611142
2881.1495291910846	0.00018836490894898024
2879.048280305063	0.00022387211385683424
2874.2579059080176	0.0002660725059798809
2865.273299886879	0.0003162277660168379
2850.512705749437	0.00037583740428844437
2829.81693752264	0.0004466835921509635
2804.659507972761	0.0005308844442309889
2772.262043679369	0.000630957344480193
2730.8882491228824	0.0007498942093324559
2680.2721286682563	0.0008912509381337458
2619.0796024262927	0.0010592537251772895
2546.9155542186704	0.0012589254117941673
2461.9550963052716	0.0014962356560944345
2350.9799260812647	0.0017782794100389225
2157.1275646982403	0.0021134890398366475
1696.659102542174	0.002511886431509582
1531.9758111718536	0.0029853826189179603
1595.3473640784666	0.0035481338923357567
1630.2466342144983	0.004216965034285822
1647.6425447486572	0.0050118723362727255
1665.3216778489318	0.005956621435290103
1683.405800374675	0.00707945784384138
1701.7149299915995	0.008413951416451957
1720.0      	0.01        
1736.618971888325	0.01188502227437019
1753.9736879361903	0.014125375446227554
1771.7337105419613	0.016788040181225587
1789.4259115250586	0.01995262314968883
1805.9652707775106	0.023713737056616554
1821.8682853966911	0.02818382931264455
1838.2723066777378	0.033496543915782793
1854.9591810449972	0.03981071705534969
1871.59675357573	0.04731512589614813
1887.5067566024964	0.056234132519034905
1903.4339781362983	0.06683439175686148
1919.5255863364043	0.07943282347242821
1935.4807498848486	0.09440608762859228
1950.8997659426852	0.11220184543019629
1964.9485038882208	0.1333521432163324
1978.330016568667	0.1584893192461114
1990.9356989206299	0.18836490894898023
2002.5980092915788	0.22387211385683378
2013.0483899496492	0.26607250597988086
2022.0621322038862	0.3162277660168379
2030.3021224742006	0.3758374042884443
2037.8799211986611	0.4466835921509634
2044.897469803163	0.5308844442309879
2051.043679424768	0.630957344480193
2056.346657411678	0.7498942093324559
2061.107086102331	0.8912509381337458
2065.2157781458964	1.0592537251772898
2068.536523645041	1.2589254117941662
2070.8630946675926	1.4962356560944328
2072.5962074212575	1.7782794100389228
2073.824393115899	2.1134890398366473
2074.6097150150945	2.511886431509582
2075.0912365616114	2.9853826189179573
2075.3264852420994	3.548133892335753
2075.4534972685215	4.216965034285823
2075.5325019627658	5.011872336272725
2075.6124644626175	5.956621435290109
2075.691704858422	7.079457843841373
2075.768949088751	8.413951416451948
2075.8      	10.0        
