# T(K)	P(bar)
3057.3      	1e-08       
3055.530387252632	1.1885022274370215e-08
3053.412225884294	1.4125375446227554e-08
3050.9228577278186	1.6788040181225588e-08
3048.0293832497478	1.9952623149688826e-08
3044.6897049391564	2.3713737056616554e-08
3040.818045848392	2.818382931264461e-08
3036.3442891163113	3.3496543915782795e-08
3031.2341257009866	3.981071705534969e-08
3025.46287172594	4.731512589614813e-08
3019.114545395063	5.6234132519034905e-08
3012.3893685631347	6.683439175686162e-08
3005.352311977388	7.94328234724282e-08
2998.1402734914773	9.440608762859226e-08
2990.917021352724	1.1220184543019653e-07
2984.4867110367927	1.333521432163324e-07
2978.951072171585	1.584893192461114e-07
2974.143148388573	1.883649089489802e-07
2969.947279109128	2.2387211385683422e-07
2966.1979058959273	2.6607250597988136e-07
2962.4254786380134	3.162277660168379e-07
2957.9877052907377	3.7583740428844433e-07
2952.6211935427614	4.466835921509635e-07
2946.0469309009513	5.308844442309889e-07
2937.930782298063	6.309573444801942e-07
2928.1721572609235	7.498942093324558e-07
2916.6816662451674	8.912509381337459e-07
2902.8936648523677	1.0592537251772896e-06
2885.943982465624	1.2589254117941687e-06
2864.539529058149	1.4962356560944327e-06
2843.2717686998353	1.7782794100389227e-06
2825.471128953259	2.1134890398366474e-06
2813.027418116979	2.511886431509582e-06
2806.125609283569	2.9853826189179636e-06
2801.6967804001174	3.5481338923357534e-06
2797.4646447683645	4.216965034285822e-06
2793.894933265969	5.011872336272725e-06
2791.3257818224147	5.95662143529011e-06
2789.5824931147135	7.079457843841388e-06
2788.7794582012425	8.413951416451948e-06
2789.8222929936305	1e-05       
2792.707552400792	1.188502227437019e-05
2796.98654032225	1.4125375446227555e-05
2801.359244872394	1.678804018122562e-05
2806.329083204704	1.9952623149688786e-05
2813.196783838525	2.371373705661655e-05
2821.436985622353	2.818382931264455e-05
2828.993011821303	3.349654391578279e-05
2835.0761786264957	3.981071705534977e-05
2842.240306299572	4.731512589614803e-05
2849.9293306052396	5.623413251903491e-05
2857.337341485337	6.683439175686148e-05
2862.91186879311	7.943282347242821e-05
2867.165864560406	9.440608762859246e-05
2872.335651903691	0.00011220184543019629
2876.9546428958793	0.0001333521432163324
2879.1751303435644	0.00015848931924611142
2878.0744507229324	0.00018836490894898024
2875.75310833557	0.00022387211385683424
2870.683855020018	0.0002660725059798809
2861.3815954399206	0.0003162277660168379
2846.292766552795	0.00037583740428844437
2825.131924882699	0.0004466835921509635
2799.625116253144	0.0005308844442309889
2766.5014507596775	0.000630957344480193
2723.846105107784	0.0007498942093324559
2671.628208689404	0.0008912509381337458
2607.1155606120064	0.0010592537251772895
2528.1819978413823	0.0012589254117941673
2429.3687691304913	0.0014962356560944345
2238.395490826991	0.0017782794100389225
1621.8153250740534	0.0021134890398366475
1594.2514524513517	0.002511886431509582
1620.704153401197	0.0029853826189179603
1630.3241433064802	0.0035481338923357567
1645.7727101045862	0.004216965034285822
1659.346200835275	0.0050118723362727255
1673.7112464436645	0.005956621435290103
1689.3689094315228	0.00707945784384138
1706.1620925911996	0.008413951416451957
1723.4      	0.01        
1739.557333780316	0.01188502227437019
1756.4999337783102	0.014125375446227554
1773.9664452692653	0.016788040181225587
1791.485153185755	0.01995262314968883
1807.7859639874503	0.023713737056616554
1823.7385197918209	0.02818382931264455
1840.2207609545196	0.033496543915782793
1857.0145577858145	0.03981071705534969
1873.8203509192138	0.04731512589614813
1889.96547714342	0.056234132519034905
1906.189006837974	0.06683439175686148
1922.5101509083297	0.07943282347242821
1938.624299362816	0.09440608762859228
1954.2041589750222	0.11220184543019629
1968.4072786562233	0.1333521432163324
1982.0019811502502	0.1584893192461114
1994.8081749062383	0.18836490894898023
2006.6620706439935	0.22387211385683378
2017.4315468946766	0.26607250597988086
2026.6080310349876	0.3162277660168379
2035.0551861484264	0.3758374042884443
2042.8100326728033	0.4466835921509634
2049.9076937749983	0.5308844442309879
2056.1327009558545	0.630957344480193
2061.513025432748	0.7498942093324559
2066.2623167076467	0.8912509381337458
2070.3399633398462	1.0592537251772898
2073.736523645041	1.2589254117941662
2076.0630946675924	1.4962356560944328
2077.7363970501947	1.7782794100389228
2078.924393115899	2.1134890398366473
2079.6914291792455	2.511886431509582
2080.092697134676	2.9853826189179573
2080.3264852420994	3.548133892335753
2080.4534972685215	4.216965034285823
2080.5325019627658	5.011872336272725
2080.6      	5.956621435290109
2080.6      	7.079457843841373
2080.6689490887507	8.413951416451948
2080.7      	10.0        
