# T(K)	P(bar)
3017.9      	1e-08       
3017.438361891991	1.1885022274370215e-08
3017.080996673696	1.4125375446227554e-08
3016.73183681826	1.6788040181225588e-08
3016.3184833213927	1.9952623149688826e-08
3015.8413864198797	2.3713737056616554e-08
3015.308359234093	2.818382931264461e-08
3014.712365785746	3.3496543915782795e-08
3014.023116295914	3.981071705534969e-08
3013.1977448449043	4.731512589614813e-08
3012.178877655998	5.6234132519034905e-08
3011.043642368716	6.683439175686162e-08
3009.696636566707	7.94328234724282e-08
3008.0774062643936	9.440608762859226e-08
3006.136067701554	1.1220184543019653e-07
3003.8893327718915	1.333521432163324e-07
3001.2893660597833	1.584893192461114e-07
2998.2417663094197	1.883649089489802e-07
2994.66720241861	2.2387211385683422e-07
2990.518959714643	2.6607250597988136e-07
2985.6312374047525	3.162277660168379e-07
2980.022386919608	3.7583740428844433e-07
2973.5899673271965	4.466835921509635e-07
2966.2469309009516	5.308844442309889e-07
2958.130782298063	6.309573444801942e-07
2949.3676775769704	7.498942093324558e-07
2940.127672637862	8.912509381337459e-07
2930.81544347156	1.0592537251772896e-06
2921.8721085725088	1.2589254117941687e-06
2912.876033951976	1.4962356560944327e-06
2904.4002902962725	1.7782794100389227e-06
2896.164718379844	2.1134890398366474e-06
2887.5045555037705	2.511886431509582e-06
2876.991335071483	2.9853826189179636e-06
2862.00296418286	3.5481338923357534e-06
2841.4183057861796	4.216965034285822e-06
2813.529144234191	5.011872336272725e-06
2775.5992364948584	5.95662143529011e-06
2721.5572865561167	7.079457843841388e-06
2655.500598254283	8.413951416451948e-06
2593.2592356687896	1e-05       
2541.6444891326146	1.188502227437019e-05
2504.3975826636834	1.4125375446227555e-05
2472.6954746751435	1.678804018122562e-05
2439.8235210361604	1.9952623149688786e-05
2402.761183875469	2.371373705661655e-05
2363.9659896195117	2.818382931264455e-05
2330.357386835454	3.349654391578279e-05
2307.9497724011367	3.981071705534977e-05
2292.8506414151216	4.731512589614803e-05
2282.640655733643	5.623413251903491e-05
2274.932902756452	6.683439175686148e-05
2267.048928421173	7.943282347242821e-05
2256.4057980922726	9.440608762859246e-05
2242.6883271065785	0.00011220184543019629
2224.163571074077	0.0001333521432163324
2199.6317741561516	0.00015848931924611142
2172.5865034777653	0.00018836490894898024
2141.171096240381	0.00022387211385683424
2102.450439290112	0.0002660725059798809
2053.5156722957563	0.0003162277660168379
1991.3891813070782	0.00037583740428844437
1921.1630913689573	0.0004466835921509635
1857.859222955101	0.0005308844442309889
1804.8822991392901	0.000630957344480193
1763.5886908950072	0.0007498942093324559
1731.2328164271764	0.0008912509381337458
1703.913482717205	0.0010592537251772895
1673.5698384670707	0.0012589254117941673
1644.2263331394583	0.0014962356560944345
1620.8944818831396	0.0017782794100389225
1609.7471805148664	0.0021134890398366475
1607.7234661030066	0.002511886431509582
1616.512900844103	0.0029853826189179603
1634.1293356838612	0.0035481338923357567
1655.8975719893479	0.004216965034285822
1675.3997138437862	0.0050118723362727255
1693.5829078832066	0.005956621435290103
1710.7095016328271	0.00707945784384138
1726.9509080983996	0.008413951416451957
1742.9      	0.01        
1756.6722035556027	0.01188502227437019
1771.3121596626042	0.014125375446227554
1786.6592619969122	0.016788040181225587
1802.3406031499326	0.01995262314968883
1817.2101232470886	0.023713737056616554
1832.6873478161729	0.02818382931264455
1850.1836635972825	0.033496543915782793
1869.8204832695155	0.03981071705534969
1891.504673880241	0.04731512589614813
1914.468372830204	0.056234132519034905
1939.9861681161774	0.06683439175686148
1967.5907520904468	0.07943282347242821
1996.6566534239269	0.09440608762859228
2026.4302831117307	0.11220184543019629
2055.6084311524587	0.1333521432163324
2085.0675372795004	0.1584893192461114
2114.2819154023155	0.18836490894898023
2142.793260969554	0.22387211385683378
2170.155708036104	0.26607250597988086
2195.965104793948	0.3162277660168379
2220.7145372205377	0.3758374042884443
2243.9602094925526	0.4466835921509634
2265.333305296831	0.5308844442309879
2284.0871243986503	0.630957344480193
2299.8408681718242	0.7498942093324559
2313.349717386726	0.8912509381337458
2324.5571121102903	1.0592537251772898
2333.536758324434	1.2589254117941662
2339.2756335133945	1.4962356560944328
2343.2316563267664	1.7782794100389228
2345.9645298088617	2.1134890398366473
2347.774287537736	2.511886431509582
2348.978091404029	2.9853826189179573
2349.603960645598	3.548133892335753
2350.0139890740857	4.216965034285823
2350.2325019627656	5.011872336272725
2350.3      	5.956621435290109
2350.3      	7.079457843841373
2350.3      	8.413951416451948
2350.3      	10.0        
