# T(K)	P(bar)
3057.3      	1e-08       
3055.530387252632	1.1885022274370215e-08
3053.4669767158703	1.4125375446227554e-08
3051.0564903641666	1.6788040181225588e-08
3048.229383249748	1.9952623149688826e-08
3044.8897049391567	2.3713737056616554e-08
3041.018045848392	2.818382931264461e-08
3036.592743393093	3.3496543915782795e-08
3031.561814071395	3.981071705534969e-08
3025.8707375071017	4.731512589614813e-08
3019.600785575371	5.6234132519034905e-08
3012.953125738554	6.683439175686162e-08
3005.9523119773885	7.94328234724282e-08
2998.7620482304606	9.440608762859226e-08
2991.6192259147397	1.1220184543019653e-07
2985.266389217072	1.333521432163324e-07
2979.693625487579	1.584893192461114e-07
2974.8431483885734	1.883649089489802e-07
2970.6793097853356	2.2387211385683422e-07
2967.0894843684414	2.6607250597988136e-07
2963.398428053564	3.162277660168379e-07
2959.0897477402214	3.7583740428844433e-07
2953.94163943933	4.466835921509635e-07
2947.7082747319637	5.308844442309889e-07
2940.0649114845837	6.309573444801942e-07
2930.7703653873423	7.498942093324558e-07
2919.8845907973277	8.912509381337459e-07
2906.9564427616165	1.0592537251772896e-06
2891.2349982289848	1.2589254117941687e-06
2871.381592169878	1.4962356560944327e-06
2851.5483553789672	1.7782794100389227e-06
2834.664034915031	2.1134890398366474e-06
2822.582275624526	2.511886431509582e-06
2815.9212275643745	2.9853826189179636e-06
2811.798760722916	3.5481338923357534e-06
2807.7716393054075	4.216965034285822e-06
2804.229929340438	5.011872336272725e-06
2801.50085289718	5.95662143529011e-06
2799.5990833978694	7.079457843841388e-06
2798.7105091124918	8.413951416451948e-06
2799.6278434940855	1e-05       
2802.4872251781953	1.188502227437019e-05
2807.0141503452683	1.4125375446227555e-05
2811.6991909347075	1.678804018122562e-05
2816.7290832047042	1.9952623149688786e-05
2823.5146009630384	2.371373705661655e-05
2831.5957731623025	2.818382931264455e-05
2838.993011821303	3.349654391578279e-05
2845.0761786264957	3.981071705534977e-05
2852.0720494037087	4.731512589614803e-05
2859.4543647580335	5.623413251903491e-05
2866.492883993108	6.683439175686148e-05
2871.8285029876906	7.943282347242821e-05
2875.8510943070505	9.440608762859246e-05
2880.7862415514846	0.00011220184543019629
2885.1967857506743	0.0001333521432163324
2887.2929688659124	0.00015848931924611142
2886.349529191085	0.00018836490894898024
2884.183222981899	0.00022387211385683424
2879.270880464018	0.0002660725059798809
2870.1503737751395	0.0003162277660168379
2855.302736151116	0.00037583740428844437
2834.3744312026693	0.0004466835921509635
2808.632126603623	0.0005308844442309889
2775.712552234118	0.000630957344480193
2734.071141922128	0.0007498942093324559
2683.3749326693137	0.0008912509381337458
2623.6632577964224	0.0010592537251772895
2555.4582831159023	0.0012589254117941673
2477.529573174598	0.0014962356560944345
2386.2730062860433	0.0017782794100389225
2270.135518981124	0.0021134890398366475
1910.1882184672036	0.002511886431509582
1699.2354957794853	0.0029853826189179603
1649.8357669367542	0.0035481338923357567
1662.186355052293	0.004216965034285822
1668.9731004176376	0.0050118723362727255
1678.6660546270996	0.005956621435290103
1690.5951275452182	0.00707945784384138
1704.0452332975997	0.008413951416451957
1717.9      	0.01        
1731.2875051322617	0.01188502227437019
1745.9216613257563	0.014125375446227554
1761.4265272696084	0.016788040181225587
1777.2949476023375	0.01995262314968883
1792.4825323005023	0.023713737056616554
1806.9338318892294	0.02818382931264455
1821.803221142102	0.033496543915782793
1837.016167118459	0.03981071705534969
1852.3866326394727	0.04731512589614813
1867.1993940781863	0.056234132519034905
1882.1051348558522	0.06683439175686148
1897.1759166188883	0.07943282347242821
1912.250101450947	0.09440608762859228
1927.1975694265166	0.11220184543019629
1941.1691165042196	0.1333521432163324
1954.5873380958612	0.1584893192461114
1967.3081749062383	0.18836490894898023
1979.1460553058898	0.22387211385683378
1989.8357576584199	0.26607250597988086
1998.935081619437	0.3162277660168379
2007.3551861484266	0.3758374042884443
2015.0799211986612	0.4466835921509634
2022.1179177468339	0.5308844442309879
2028.4217224869412	0.630957344480193
2033.8130254327477	0.7498942093324559
2038.607086102331	0.8912509381337458
2042.7641485337963	1.0592537251772898
2046.2456252213767	1.2589254117941662
2048.7273009787655	1.4962356560944328
2050.5560177923203	1.7782794100389228
2051.901555500608	2.1134890398366473
2052.828000850943	2.511886431509582
2053.3897759885467	2.9853826189179573
2053.626485242099	3.548133892335753
2053.806994537043	4.216965034285823
2053.9      	5.011872336272725
2053.9      	5.956621435290109
2053.9      	7.079457843841373
2053.9      	8.413951416451948
2053.9      	10.0        
