# T(K)	P(bar)
2963.6      	1e-08       
2962.1381459913046	1.1885022274370215e-08
2961.645249168424	1.4125375446227554e-08
2961.4654694546075	1.6788040181225588e-08
2961.1320694344936	1.9952623149688826e-08
2960.734488683233	2.3713737056616554e-08
2960.2083592340928	2.818382931264461e-08
2959.6123657857456	3.3496543915782795e-08
2958.9231162959136	3.981071705534969e-08
2958.097744844904	4.731512589614813e-08
2957.078877655998	5.6234132519034905e-08
2955.943642368716	6.683439175686162e-08
2954.5966365667073	7.94328234724282e-08
2952.9774062643937	9.440608762859226e-08
2951.033863139539	1.1220184543019653e-07
2948.7096545916115	1.333521432163324e-07
2946.031919375777	1.584893192461114e-07
2942.869290323811	1.883649089489802e-07
2939.1031410661953	2.2387211385683422e-07
2934.6358027696156	2.6607250597988136e-07
2929.4394397425494	3.162277660168379e-07
2923.4162595711555	3.7583740428844433e-07
2916.4490755340585	4.466835921509635e-07
2908.4549151544325	5.308844442309889e-07
2899.629588518282	6.309573444801942e-07
2890.96678164018	7.498942093324558e-07
2881.5142868750704	8.912509381337459e-07
2871.984739829209	1.0592537251772896e-06
2863.5539054198366	1.2589254117941687e-06
2854.24762132963	1.4962356560944327e-06
2845.5806695541464	1.7782794100389227e-06
2838.113504611642	2.1134890398366474e-06
2831.7737048037716	2.511886431509582e-06
2825.5139246990507	2.9853826189179636e-06
2816.8690558809344	3.5481338923357534e-06
2805.9149179162223	4.216965034285822e-06
2793.1446584787827	5.011872336272725e-06
2778.9071074764984	5.95662143529011e-06
2763.059028315577	7.079457843841388e-06
2750.0923494448657	8.413951416451948e-06
2742.3081892629666	1e-05       
2740.601322030921	1.188502227437019e-05
2744.7314929430945	1.4125375446227555e-05
2750.7439616995416	1.678804018122562e-05
2756.0290832047044	1.9952623149688786e-05
2761.910589332688	2.371373705661655e-05
2767.335761980651	2.818382931264455e-05
2769.3552601365886	3.349654391578279e-05
2766.4291799011794	3.981071705534977e-05
2763.9174310413696	4.731512589614803e-05
2761.200273222351	5.623413251903491e-05
2757.681211827273	6.683439175686148e-05
2752.7437733546744	7.943282347242821e-05
2749.679576790825	9.440608762859246e-05
2750.4427276772135	0.00011220184543019629
2752.676071443831	0.0001333521432163324
2753.6      	0.00015848931924611142
2753.6      	0.00018836490894898024
2756.592636865569	0.00022387211385683424
2760.8977887639876	0.0002660725059798809
2765.339970581322	0.0003162277660168379
2768.6096655815304	0.00037583740428844437
2771.167569519674	0.0004466835921509635
2775.2572778643485	0.0005308844442309889
2778.1111014744406	0.000630957344480193
2777.9959615645184	0.0007498942093324559
2774.231788049696	0.0008912509381337458
2767.571916371428	0.0010592537251772895
2756.3280398435777	0.0012589254117941673
2738.7575114199303	0.0014962356560944345
2713.132939276575	0.0017782794100389225
2677.9517399228043	0.0021134890398366475
2626.0720136516547	0.002511886431509582
2540.8444118916786	0.0029853826189179603
2236.596761689302	0.0035481338923357567
1563.1294199730935	0.004216965034285822
1641.6840473627708	0.0050118723362727255
1654.4037378749617	0.005956621435290103
1656.9017898098919	0.00707945784384138
1666.7894759423996	0.008413951416451957
1677.1      	0.01        
1688.0254352228803	0.01188502227437019
1700.607641367931	0.014125375446227554
1714.858364087868	0.016788040181225587
1730.6530837512612	0.01995262314968883
1747.3514753042173	0.023713737056616554
1764.9539108798008	0.02818382931264455
1783.7197520883183	0.033496543915782793
1803.3497809725686	0.03981071705534969
1823.537237320759	0.04731512589614813
1843.8362066997367	0.056234132519034905
1864.8057088893663	0.06683439175686148
1886.454475497649	0.07943282347242821
1908.5098279594697	0.09440608762859228
1930.708434978702	0.11220184543019629
1952.090305368336	0.1333521432163324
1973.2194908153058	0.1584893192461114
1993.9044501722665	0.18836490894898023
2013.9436811448772	0.22387211385683378
2033.0894167016472	0.26607250597988086
2050.513618498917	0.3162277660168379
2066.957308622627	0.3758374042884443
2082.3501768197493	0.4466835921509634
2096.666507409174	0.5308844442309879
2109.510509567143	0.630957344480193
2121.1224671183336	0.7498942093324559
2131.9200213089825	0.8912509381337458
2141.85711211029	1.0592537251772898
2150.932324875963	1.2589254117941662
2158.2997997807097	1.4962356560944328
2164.425967458653	1.7782794100389228
2169.4833843871415	2.1134890398366473
2173.458290090567	2.511886431509582
2176.347419369669	2.9853826189179573
2178.136386856093	3.548133892335753
2179.3954644907785	4.216965034285823
2180.260015702125	5.011872336272725
2180.8623223130876	5.956621435290109
2181.258524292111	7.079457843841373
2181.5068472662524	8.413951416451948
2181.8      	10.0        
