# T(K)	P(bar)
2995.6      	1e-08       
2967.747834150122	1.1885022274370215e-08
2945.2742854533753	1.4125375446227554e-08
2922.366699459754	1.6788040181225588e-08
2895.4584465276657	1.9952623149688826e-08
2867.707310089658	2.3713737056616554e-08
2843.0356967439266	2.818382931264461e-08
2821.4379765277727	3.3496543915782795e-08
2803.5991584376707	3.981071705534969e-08
2789.84037469833	4.731512589614813e-08
2780.2786980024407	5.6234132519034905e-08
2772.7980970368776	6.683439175686162e-08
2766.032852551053	7.94328234724282e-08
2759.4926966643625	9.440608762859226e-08
2752.8126122286935	1.1220184543019653e-07
2746.2273546762335	1.333521432163324e-07
2739.6170318594736	1.584893192461114e-07
2733.028484590056	1.883649089489802e-07
2726.582834304122	2.2387211385683422e-07
2720.520018044478	2.6607250597988136e-07
2715.2394397425496	3.162277660168379e-07
2710.3387265154797	3.7583740428844433e-07
2705.80409187046	4.466835921509635e-07
2701.599025380064	5.308844442309889e-07
2697.737944976748	6.309573444801942e-07
2694.147071030788	7.498942093324558e-07
2690.674916028567	8.912509381337459e-07
2687.3325922420036	1.0592537251772896e-06
2684.131620837783	1.2589254117941687e-06
2681.2621832433024	1.4962356560944327e-06
2678.4468266417366	1.7782794100389227e-06
2675.5724958828846	2.1134890398366474e-06
2672.5502807301878	2.511886431509582e-06
2669.259883495655	2.9853826189179636e-06
2665.651731207114	3.5481338923357534e-06
2661.6646447683643	4.216965034285822e-06
2657.477395973422	5.011872336272725e-06
2653.239383481272	5.95662143529011e-06
2649.039642503628	7.079457843841388e-06
2645.0835964737084	8.413951416451948e-06
2641.280436760692	1e-05       
2637.6049083389503	1.188502227437019e-05
2633.9686797237855	1.4125375446227555e-05
2630.220647252234	1.678804018122562e-05
2626.184221062889	1.9952623149688786e-05
2621.816696610893	2.371373705661655e-05
2616.875138978148	2.818382931264455e-05
2610.8869729766448	3.349654391578279e-05
2603.4947702766635	3.981071705534977e-05
2594.3892960057065	4.731512589614803e-05
2583.1261270421987	5.623413251903491e-05
2569.1842413954555	6.683439175686148e-05
2551.9032067413596	7.943282347242821e-05
2531.012726775709	9.440608762859246e-05
2505.3703646366926	0.00011220184543019629
2473.6589280138633	0.0001333521432163324
2434.851698175529	0.00015848931924611142
2390.352793512835	0.00018836490894898024
2343.745147515951	0.00022387211385683424
2295.6091378041247	0.0002660725059798809
2247.7696729788872	0.0003162277660168379
2202.728126664733	0.00037583740428844437
2166.0648368846764	0.0004466835921509635
2135.4359617952514	0.0005308844442309889
2110.2588188908035	0.000630957344480193
2090.3154174550527	0.0007498942093324559
2074.9383682030148	0.0008912509381337458
2063.7918641035703	0.0010592537251772895
2053.892655473173	0.0012589254117941673
2044.6067351615116	0.0014962356560944345
2035.3905348692274	0.0017782794100389225
2026.2987642497137	0.0021134890398366475
2017.8257805227704	0.002511886431509582
2009.2372773088316	0.0029853826189179603
2000.685635254807	0.0035481338923357567
1992.4801032199625	0.004216965034285822
1985.2253064501115	0.0050118723362727255
1978.86282729229	0.005956621435290103
1973.4885869189127	0.00707945784384138
1969.2609368296	0.008413951416451957
1966.2      	0.01        
1964.0456888292913	0.01188502227437019
1962.4144850316309	0.014125375446227554
1960.9946125457352	0.016788040181225587
1959.4331749462663	0.01995262314968883
1957.2862388894578	0.023713737056616554
1954.7120305655947	0.02818382931264455
1951.7133746519469	0.033496543915782793
1948.2155814795678	0.03981071705534969
1944.096590005681	0.04731512589614813
1939.0806284602968	0.056234132519034905
1933.290697492743	0.06683439175686148
1926.9905702650904	0.07943282347242821
1920.3491471863952	0.09440608762859228
1913.5242787065122	0.11220184543019629
1907.349009279903	0.1333521432163324
1901.7448146235834	0.1584893192461114
1896.7344344101607	0.18836490894898023
1892.3632944472317	0.22387211385683378
1888.6936951321843	0.26607250597988086
1885.7279222090717	0.3162277660168379
1883.0673208082558	0.3758374042884443
1880.686990198159	0.4466835921509634
1878.5750726196206	0.5308844442309879
1876.841526316091	0.630957344480193
1875.7372157260922	0.7498942093324559
1875.031383631893	0.8912509381337458
1874.6274444181504	1.0592537251772898
1874.4      	1.2589254117941662
1874.4      	1.4962356560944328
1874.4      	1.7782794100389228
1874.4      	2.1134890398366473
1874.4182858358492	2.511886431509582
1874.4985394269352	2.9853826189179573
1874.5      	3.548133892335753
1874.5534972685214	4.216965034285823
1874.6650039255312	5.011872336272725
1874.8124644626175	5.956621435290109
1874.8917048584221	7.079457843841373
1875.1068472662525	8.413951416451948
1875.3      	10.0        
