# T(K)	P(bar)
2992.8      	1e-08       
2963.178221402754	1.1885022274370215e-08
2938.750763832398	1.4125375446227554e-08
2913.5568224602684	1.6788040181225588e-08
2884.023690908426	1.9952623149688826e-08
2853.7280376623485	2.3713737056616554e-08
2826.8691336802985	2.818382931264461e-08
2803.3719824385735	3.3496543915782795e-08
2784.01152125195	3.981071705534969e-08
2769.1774484490397	4.731512589614813e-08
2758.9887765599774	5.6234132519034905e-08
2750.9517968089453	6.683439175686162e-08
2743.594594263351	7.94328234724282e-08
2736.4184987524936	9.440608762859226e-08
2729.0927711705554	1.1220184543019653e-07
2721.8102510537174	1.333521432163324e-07
2714.385118335406	1.584893192461114e-07
2706.8573906836014	1.883649089489802e-07
2699.3426042325673	2.2387211385683422e-07
2692.083179500625	2.6607250597988136e-07
2685.4992996781866	3.162277660168379e-07
2679.1693232453817	3.7583740428844433e-07
2673.0416394393305	4.466835921509635e-07
2667.0638740278496	5.308844442309889e-07
2661.3904497617527	6.309573444801942e-07
2655.7551344619033	7.498942093324558e-07
2650.031834188033	8.912509381337459e-07
2644.234480841656	1.0592537251772896e-06
2638.3586908873976	1.2589254117941687e-06
2632.5422633310186	1.4962356560944327e-06
2626.534791057096	1.7782794100389227e-06
2620.197761034579	2.1134890398366474e-06
2613.4177031018844	2.511886431509582e-06
2606.0343727219574	2.9853826189179636e-06
2598.048511607232	3.5481338923357534e-06
2589.1338250459503	4.216965034285822e-06
2579.3097409149386	5.011872336272725e-06
2568.605117383079	5.95662143529011e-06
2557.194500387215	7.079457843841388e-06
2545.1749930661217	8.413951416451948e-06
2532.130118289354	1e-05       
2517.741596691381	1.188502227437019e-05
2501.4467635383635	1.4125375446227555e-05
2481.6134250430705	1.678804018122562e-05
2457.154583976479	1.9952623149688786e-05
2427.7059618988187	2.371373705661655e-05
2393.1647659778096	2.818382931264455e-05
2353.8277246840003	3.349654391578279e-05
2309.8595190414057	3.981071705534977e-05
2260.944339229674	4.731512589614803e-05
2203.9155600748472	5.623413251903491e-05
2138.3444338788895	6.683439175686148e-05
2070.33520072406	7.943282347242821e-05
2019.3528054440287	9.440608762859246e-05
1981.0288162550664	0.00011220184543019629
1954.419999737064	0.0001333521432163324
1937.3850923532527	0.00015848931924611142
1927.557595740467	0.00018836490894898024
1922.0965606101267	0.00022387211385683424
1919.0427201160044	0.0002660725059798809
1917.7082955530418	0.0003162277660168379
1917.4166159972017	0.00037583740428844437
1917.8041771999506	0.0004466835921509635
1918.8375668784674	0.0005308844442309889
1919.9111014744403	0.000630957344480193
1920.6684288030197	0.0007498942093324559
1920.9887839957705	0.0008912509381337458
1921.2967310740262	0.0010592537251772895
1921.347837440951	0.0012589254117941673
1920.925050625549	0.0014962356560944345
1919.8494936271566	0.0017782794100389225
1918.1101983782062	0.0021134890398366475
1916.0057050884182	0.002511886431509582
1913.7192574478631	0.0029853826189179603
1911.4146810862114	0.0035481338923357567
1909.2881942408524	0.004216965034285822
1907.7280228924972	0.0050118723362727255
1906.8489296915268	0.005956621435290103
1906.7391116980434	0.00707945784384138
1907.5667767392	0.008413951416451957
1909.5      	0.01        
1912.3467683327224	0.01188502227437019
1916.649302389292	0.014125375446227554
1922.59420254402	0.016788040181225587
1930.2352307804406	0.01995262314968883
1939.220555758936	0.023713737056616554
1950.1839872937874	0.02818382931264455
1963.0764069903755	0.033496543915782793
1977.7099857113194	0.03981071705534969
1993.8226060743095	0.04731512589614813
2010.9865994874222	0.056234132519034905
2029.7480223284742	0.06683439175686148
2050.1162172099466	0.07943282347242821
2071.8187016543875	0.09440608762859228
2094.447972269737	0.11220184543019629
2117.219278280358	0.1333521432163324
2139.636635250417	0.1584893192461114
2160.8232602082453	0.18836490894898023
2179.935098296938	0.22387211385683378
2196.0494257238865	0.26607250597988086
2207.623564085959	0.3162277660168379
2216.2429314515225	0.3758374042884443
2222.2055737071128	0.4466835921509634
2225.94537532405	0.5308844442309879
2227.8365167460825	0.630957344480193
2228.763680210698	0.7498942093324559
2229.279077578738	0.8912509381337458
2229.52418519395	1.0592537251772898
2229.5954492118317	1.2589254117941662
2229.5178968444134	1.4962356560944328
2229.4401896289373	1.7782794100389228
2229.361418807646	2.1134890398366473
2229.2817141641513	2.511886431509582
2229.2014605730647	2.9853826189179573
2229.0490098386003	3.548133892335753
2228.8930054629573	4.216965034285823
2228.6699921489376	5.011872336272725
2228.3501421495303	5.956621435290109
2228.0331805663113	7.079457843841373
2227.586305467495	8.413951416451948
2227.1      	10.0        
