# T(K)	P(bar)
2991.1      	1e-08       
2959.400849916713	1.1885022274370215e-08
2934.73401965343	1.4125375446227554e-08
2909.6213940058324	1.6788040181225588e-08
2879.2432797415913	1.9952623149688826e-08
2846.7211742884533	2.3713737056616554e-08
2815.946710738431	2.818382931264461e-08
2787.480183063849	3.3496543915782795e-08
2762.656400434571	3.981071705534969e-08
2742.5920251721395	4.731512589614813e-08
2728.5630077248925	5.6234132519034905e-08
2718.0665958972154	6.683439175686162e-08
2709.0603599739097	7.94328234724282e-08
2700.7572018846904	9.440608762859226e-08
2692.457498178309	1.1220184543019653e-07
2683.935400169243	1.333521432163324e-07
2675.0361846552814	1.584893192461114e-07
2665.7876788563003	1.883649089489802e-07
2656.2621440894573	2.2387211385683422e-07
2646.6095024129195	2.6607250597988136e-07
2637.27312071836	3.162277660168379e-07
2627.9284742557015	3.7583740428844433e-07
2618.5468460512134	4.466835921509635e-07
2609.062899407914	5.308844442309889e-07
2599.528394738501	6.309573444801942e-07
2589.572157260923	7.498942093324558e-07
2578.977054138857	8.912509381337459e-07
2567.430368968014	1.0592537251772896e-06
2554.503612070595	1.2589254117941687e-06
2540.9319477723775	1.4962356560944327e-06
2526.495839869117	1.7782794100389227e-06
2510.605043643789	2.1134890398366474e-06
2492.6456826792387	2.511886431509582e-06
2471.7797489968357	2.9853826189179636e-06
2448.7514757900917	3.5481338923357534e-06
2422.4619669434155	4.216965034285822e-06
2391.829144234191	5.011872336272725e-06
2355.9184794388952	5.95662143529011e-06
2314.7134736205	7.079457843841388e-06
2267.789463151994	8.413951416451948e-06
2212.945313921747	1e-05       
2144.12566661766	1.188502227437019e-05
2055.8343356924574	1.4125375446227555e-05
1963.4609520706772	1.678804018122562e-05
1910.7279164934898	1.9952623149688786e-05
1878.4587631828701	2.371373705661655e-05
1859.0678530361954	2.818382931264455e-05
1846.9058108138704	3.349654391578279e-05
1840.7456418972197	3.981071705534977e-05
1837.0930885135522	4.731512589614803e-05
1835.2500683055878	5.623413251903491e-05
1834.6296383281524	6.683439175686148e-05
1834.7889105369459	7.943282347242821e-05
1835.5874909289716	9.440608762859246e-05
1836.995675916181	0.00011220184543019629
1838.8232143150597	0.0001333521432163324
1840.8586585740452	0.00015848931924611142
1843.1386377882116	0.00018836490894898024
1845.711948987595	0.00022387211385683424
1848.5969961579922	0.0002660725059798809
1851.739970581322	0.0003162277660168379
1855.0462207753737	0.00037583740428844437
1858.456759359565	0.0004466835921509635
1862.112700635402	0.0005308844442309889
1865.8565244817	0.000630957344480193
1869.552716833217	0.0007498942093324559
1873.076623953476	0.0008912509381337458
1876.3898590457795	0.0010592537251772895
1879.5865023619585	0.0012589254117941673
1882.5936023421486	0.0014962356560944345
1885.352986252643	0.0017782794100389225
1887.803811376164	0.0021134890398366475
1889.656027963085	0.002511886431509582
1891.2284455312822	0.0029853826189179603
1892.5807327298826	0.0035481338923357567
1893.7670834554888	0.004216965034285822
1894.7031862645017	0.0050118723362727255
1895.9409105826717	0.005956621435290103
1897.8752623895653	0.00707945784384138
1900.7919005708	0.008413951416451957
1904.9      	0.01        
1910.2088382421039	0.01188502227437019
1917.6583389786388	0.014125375446227554
1927.5448954522062	0.016788040181225587
1940.0677753761352	0.01995262314968883
1955.0963277737956	0.023713737056616554
1973.5371924116148	0.02818382931264455
1995.5785544184434	0.033496543915782793
2021.3231900879275	0.03981071705534969
2050.835091212362	0.04731512589614813
2084.0658364505343	0.056234132519034905
2121.0772587798538	0.06683439175686148
2160.490812698899	0.07943282347242821
2200.72607262399	0.09440608762859228
2239.848894984835	0.11220184543019629
2273.195349888524	0.1333521432163324
2301.4746761917227	0.1584893192461114
2324.488404294595	0.18836490894898023
2342.066362067963	0.22387211385683378
2354.351542383557	0.26607250597988086
2361.7113462306684	0.3162277660168379
2366.8531036865843	0.3758374042884443
2370.213009801841	0.4466835921509634
2372.243135605696	0.5308844442309879
2373.3463014352146	0.630957344480193
2373.9645761474885	0.7498942093324559
2374.3343081840535	0.8912509381337458
2374.52418519395	1.0592537251772898
2374.6      	1.2589254117941662
2374.6      	1.4962356560944328
2374.5401896289372	1.7782794100389228
2374.4614188076457	2.1134890398366473
2374.381714164151	2.511886431509582
2374.301460573065	2.9853826189179573
2374.2245049193	3.548133892335753
2374.1465027314784	4.216965034285823
2374.002494111703	5.011872336272725
2373.7626066121475	5.956621435290109
2373.524885424734	7.079457843841373
2373.2242036449966	8.413951416451948
2372.8      	10.0        
