# T(K)	P(bar)
2912.7      	1e-08       
2812.2937115080354	1.1885022274370215e-08
2768.4027904428317	1.4125375446227554e-08
2752.0896350931857	1.6788040181225588e-08
2740.5658747313323	1.9952623149688826e-08
2729.831194447289	2.3713737056616554e-08
2720.190935003933	2.818382931264461e-08
2711.170029554004	3.3496543915782795e-08
2702.869604811179	3.981071705534969e-08
2695.347140163618	4.731512589614813e-08
2688.842065034447	5.6234132519034905e-08
2682.9819690189997	6.683439175686162e-08
2677.382522268569	7.94328234724282e-08
2671.9628672270833	9.440608762859226e-08
2666.656703469001	1.1220184543019653e-07
2661.6209182818257	1.333521432163324e-07
2656.738305591616	1.584893192461114e-07
2651.85324444614	1.883649089489802e-07
2646.9070490375734	2.2387211385683422e-07
2641.961067352074	2.6607250597988136e-07
2636.9582879892014	3.162277660168379e-07
2631.5774930433176	3.7583740428844433e-07
2625.7211935427613	4.466835921509635e-07
2619.310514450318	5.308844442309889e-07
2612.455126795451	6.309573444801942e-07
2605.261406019437	7.498942093324558e-07
2597.488752347498	8.912509381337459e-07
2589.06707308366	1.0592537251772896e-06
2579.9539054198367	1.2589254117941687e-06
2570.64762132963	1.4962356560944327e-06
2560.7246517618264	1.7782794100389227e-06
2549.9828894933107	2.1134890398366474e-06
2538.2742662641467	2.511886431509582e-06
2525.4336916903603	2.9853826189179636e-06
2511.686380554755	3.5481338923357534e-06
2495.958579073458	4.216965034285822e-06
2477.681991643705	5.011872336272725e-06
2456.410803364277	5.95662143529011e-06
2432.3217230396767	7.079457843841388e-06
2405.2541244047084	8.413951416451948e-06
2374.176706096451	1e-05       
2338.1228398790972	1.188502227437019e-05
2295.9169088459093	1.4125375446227555e-05
2246.3335626076755	1.678804018122562e-05
2186.0623260755283	1.9952623149688786e-05
2118.306791653666	2.371373705661655e-05
2051.7180750842303	2.818382931264455e-05
2001.2737939327637	3.349654391578279e-05
1973.3990295849194	3.981071705534977e-05
1953.722017289587	4.731512589614803e-05
1940.2658264976124	5.623413251903491e-05
1931.3774776787393	6.683439175686148e-05
1925.8825864753633	7.943282347242821e-05
1922.7795767908253	9.440608762859246e-05
1920.7537344360255	0.00011220184543019629
1919.5974999917833	0.0001333521432163324
1919.0821614776519	0.00015848931924611142
1918.9249215318475	0.00018836490894898024
1919.2903439389875	0.00022387211385683424
1919.8916144979983	0.0002660725059798809
1920.5834088939166	0.0003162277660168379
1921.2332319944032	0.00037583740428844437
1922.0083543999012	0.0004466835921509635
1923.2547627382758	0.0005308844442309889
1924.5979657810042	0.000630957344480193
1925.839500810569	0.0007498942093324559
1926.9607439851968	0.0008912509381337458
1928.038558759091	0.0010592537251772895
1929.0781132676366	0.0012589254117941673
1929.949966249634	0.0014962356560944345
1930.5569332665552	0.0017782794100389225
1930.9522276413168	0.0021134890398366475
1931.1353067793987	0.002511886431509582
1931.2      	0.0029853826189179603
1931.2      	0.0035481338923357567
1931.2      	0.004216965034285822
1931.2      	0.0050118723362727255
1931.5061501713742	0.005956621435290103
1932.3376311947827	0.00707945784384138
1933.8251238316	0.008413951416451957
1936.0      	0.01        
1938.6159492787178	0.01188502227437019
1942.4660465682596	0.014125375446227554
1947.5560803624512	0.016788040181225587
1953.8635085184155	0.01995262314968883
1961.2585104918678	0.023713737056616554
1970.1174242301595	0.02818382931264455
1980.6743244101401	0.033496543915782793
1992.8516462286516	0.03981071705534969
2006.5495588887625	0.04731512589614813
2021.9893155206491	0.056234132519034905
2039.9379649251227	0.06683439175686148
2059.8470880660957	0.07943282347242821
2081.1662784815026	0.09440608762859228
2103.208434978702	0.11220184543019629
2124.590305368336	0.1333521432163324
2144.573060271417	0.1584893192461114
2162.2664085968186	0.18836490894898023
2176.9581626726153	0.22387211385683378
2188.206282312218	0.26607250597988086
2195.5113462306686	0.3162277660168379
2200.7041249113263	0.3758374042884443
2204.1431212759835	0.4466835921509634
2206.243135605696	0.5308844442309879
2207.3463014352146	0.630957344480193
2207.8318401053493	0.7498942093324559
2208.0447693946844	0.8912509381337458
2208.1      	1.0592537251772898
2208.090898423664	1.2589254117941662
2207.9357936888273	1.4962356560944328
2207.8401896289374	1.7782794100389228
2207.684256422937	2.1134890398366473
2207.4451424924528	2.511886431509582
2207.204381719194	2.9853826189179573
2206.8225245965014	3.548133892335753
2206.32551912035	4.216965034285823
2205.6749803723437	5.011872336272725
2204.8379619859725	5.956621435290109
2203.807836840512	7.079457843841373
2202.3899673137344	8.413951416451948
2200.9      	10.0        
