# T(K)	P(bar)
2991.8      	1e-08       
2959.4083927546994	1.1885022274370215e-08
2935.9027904428317	1.4125375446227554e-08
2912.5940467327932	1.6788040181225588e-08
2883.6791408726035	1.9952623149688826e-08
2851.952196921987	2.3713737056616554e-08
2820.4038979968764	2.818382931264461e-08
2789.9327376532683	3.3496543915782795e-08
2762.027358654956	3.981071705534969e-08
2738.1537965822067	4.731512589614813e-08
2720.7546799716542	5.6234132519034905e-08
2707.8176378100666	6.683439175686162e-08
2697.1261256844678	7.94328234724282e-08
2687.826553450789	9.440608762859226e-08
2679.0530890542786	1.1220184543019653e-07
2670.3760438086842	1.333521432163324e-07
2661.148951235251	1.584893192461114e-07
2651.3977749138667	1.883649089489802e-07
2641.1859753703175	2.2387211385683422e-07
2630.6558208140937	2.6607250597988136e-07
2620.178879485099	3.162277660168379e-07
2609.510092210345	3.7583740428844433e-07
2598.554282145941	4.466835921509635e-07
2587.1970761401926	5.308844442309889e-07
2575.613834930245	6.309573444801942e-07
2563.8456927763173	7.498942093324558e-07
2551.2682804823758	8.912509381337459e-07
2537.1904056281674	1.0592537251772896e-06
2520.7533187213535	1.2589254117941687e-06
2502.9162742151243	1.4962356560944327e-06
2482.4119583287725	1.7782794100389227e-06
2459.0540184465694	2.1134890398366474e-06
2432.5062398848963	2.511886431509582e-06
2402.2506360454113	2.9853826189179636e-06
2367.349738281639	3.5481338923357534e-06
2326.616010507652	4.216965034285822e-06
2276.361018111959	5.011872336272725e-06
2213.2222200226934	5.95662143529011e-06
2135.8043533215923	7.079457843841388e-06
2047.0295661615423	8.413951416451948e-06
1961.3029117379435	1e-05       
1890.6700387762241	1.188502227437019e-05
1846.2605685498727	1.4125375446227555e-05
1826.583398074227	1.678804018122562e-05
1814.2915861236397	1.9952623149688786e-05
1805.912684980542	2.371373705661655e-05
1800.499388179149	2.818382931264455e-05
1797.7917584462136	3.349654391578279e-05
1797.2527436660066	3.981071705534977e-05
1797.7730275834522	4.731512589614803e-05
1799.0348565582656	5.623413251903491e-05
1800.7852982659824	6.683439175686148e-05
1802.855836980298	7.943282347242821e-05
1805.076112449107	9.440608762859246e-05
1807.5933173250069	0.00011220184543019629
1810.254642895879	0.0001333521432163324
1812.8943356187413	0.00015848931924611142
1815.4887947245168	0.00018836490894898024
1818.1770063107595	0.00022387211385683424
1820.922945269993	0.0002660725059798809
1823.7024139108848	0.0003162277660168379
1826.5096655815303	0.00037583740428844437
1829.0675695196737	0.0004466835921509635
1831.633731686839	0.0005308844442309889
1834.121185839383	0.000630957344480193
1836.4790016211382	0.0007498942093324559
1838.7214879703936	0.0008912509381337458
1840.8029347496756	0.0010592537251772895
1842.7519014171753	0.0012589254117941673
1844.6186529676977	0.0014962356560944345
1846.4277330662214	0.0017782794100389225
1848.0089105652673	0.0021134890398366475
1849.147147455791	0.002511886431509582
1850.1522970208546	0.0029853826189179603
1851.104586183906	0.0035481338923357567
1852.0447223036592	0.004216965034285822
1852.668790843001	0.0050118723362727255
1853.2286102399237	0.005956621435290103
1854.2571870438044	0.00707945784384138
1855.9834709240001	0.008413951416451957
1858.4      	0.01        
1861.1698286480541	0.01188502227437019
1865.5588040524442	0.014125375446227554
1871.795998362108	0.016788040181225587
1880.0118502507567	0.01995262314968883
1890.0308851825305	0.023713737056616554
1902.9100815671563	0.02818382931264455
1919.6774807044094	0.033496543915782793
1940.6003297154523	0.03981071705534969
1965.7889968412678	0.04731512589614813
1995.5712685169883	0.056234132519034905
2032.2322874815293	0.06683439175686148
2075.215677861883	0.07943282347242821
2123.8931024681506	0.09440608762859228
2177.1046135754905	0.11220184543019629
2229.980358040831	0.1333521432163324
2278.320951735084	0.1584893192461114
2319.780954826652	0.18836490894898023
2352.6245247405786	0.22387211385683378
2376.1578246957747	0.26607250597988086
2390.676793630235	0.3162277660168379
2401.1613134968784	0.3758374042884443
2408.4271343451046	0.4466835921509634
2413.278286957911	0.5308844442309879
2416.19379665021	0.630957344480193
2417.9273604213963	0.7498942093324559
2419.0924633415293	0.8912509381337458
2419.820925969749	1.0592537251772898
2420.209101576336	1.2589254117941662
2420.364206311173	1.4962356560944328
2420.4598103710628	1.7782794100389228
2420.5      	2.1134890398366473
2420.481714164151	2.511886431509582
2420.401460573065	2.9853826189179573
2420.4      	3.548133892335753
2420.3465027314787	4.216965034285823
2420.3      	5.011872336272725
2420.2875355373826	5.956621435290109
2420.2082951415778	7.079457843841373
2420.131050911249	8.413951416451948
2420.0      	10.0        
