# T(K)	P(bar)
2992.8      	1e-08       
2960.7930911780404	1.1885022274370215e-08
2937.786046263864	1.4125375446227554e-08
2915.1303730962736	1.6788040181225588e-08
2887.001415890515	1.9952623149688826e-08
2855.990117292168	2.3713737056616554e-08
2825.206241948172	2.818382931264461e-08
2795.517280421086	3.3496543915782795e-08
2768.3211772478166	3.981071705534969e-08
2745.000991269174	4.731512589614813e-08
2728.072121053501	5.6234132519034905e-08
2715.4726665117423	6.683439175686162e-08
2705.1798194002445	7.94328234724282e-08
2696.2918776677398	9.440608762859226e-08
2687.7597027403244	1.1220184543019653e-07
2679.315078349523	1.333521432163324e-07
2670.4361846552815	1.584893192461114e-07
2661.0427268850835	1.883649089489802e-07
2651.182067398939	2.2387211385683422e-07
2641.130556231635	2.6607250597988136e-07
2631.262474809505	3.162277660168379e-07
2621.2692832330235	3.7583740428844433e-07
2611.145731309791	4.466835921509635e-07
2600.850435717724	5.308844442309889e-07
2590.4491578965467	6.309573444801942e-07
2579.7748450712947	7.498942093324558e-07
2568.4741295866966	8.912509381337459e-07
2556.091776252715	1.0592537251772896e-06
2542.0307994599066	1.2589254117941687e-06
2527.2182972829946	1.4962356560944327e-06
2511.1800117057332	1.7782794100389227e-06
2492.8232147572553	2.1134890398366474e-06
2471.52282006603	2.511886431509582e-06
2447.0454747847493	2.9853826189179636e-06
2419.49726602881	3.5481338923357534e-06
2386.7332237024016	4.216965034285822e-06
2346.9513557076452	5.011872336272725e-06
2298.1644017985454	5.95662143529011e-06
2238.179422174458	7.079457843841388e-06
2166.7431111304763	8.413951416451948e-06
2083.0915377616016	1e-05       
1994.5410855013067	1.188502227437019e-05
1913.475839145142	1.4125375446227555e-05
1867.9528614177555	1.678804018122562e-05
1842.0580485138037	1.9952623149688786e-05
1825.2253699610842	2.371373705661655e-05
1813.945439297747	2.818382931264455e-05
1806.750550677282	3.349654391578279e-05
1803.5164619960403	3.981071705534977e-05
1802.0391436804564	4.731512589614803e-05
1801.914938524971	5.623413251903491e-05
1802.73710662522	6.683439175686148e-05
1804.011284295568	7.943282347242821e-05
1805.7465719423953	9.440608762859246e-05
1807.8443000713294	0.00011220184543019629
1810.1389286054693	0.0001333521432163324
1812.4675778352193	0.00015848931924611142
1814.826177022288	0.00018836490894898024
1817.2818343412657	0.00022387211385683424
1819.8794325479932	0.0002660725059798809
1822.5565616874055	0.0003162277660168379
1825.2063423820898	0.00037583740428844437
1827.6867340796837	0.0004466835921509635
1830.2337316868388	0.0005308844442309889
1832.6838129780701	0.000630957344480193
1834.9618944203833	0.0007498942093324559
1837.1242919714512	0.0008912509381337458
1839.0545692126625	0.0010592537251772895
1840.8475762990772	0.0012589254117941673
1842.5561614052892	0.0014962356560944345
1844.193573106288	0.0017782794100389225
1845.5375739804772	0.0021134890398366475
1846.5794940660917	0.002511886431509582
1847.5062722691168	0.0029853826189179603
1848.3538218199214	0.0035481338923357567
1849.1279514397868	0.004216965034285822
1849.5179942768757	0.0050118723362727255
1849.8449201370993	0.005956621435290103
1850.5579272954349	0.00707945784384138
1851.8473277084001	0.008413951416451957
1853.7      	0.01        
1855.8543111707088	0.01188502227437019
1859.4017940735314	0.014125375446227554
1864.6251414532355	0.016788040181225587
1871.6537141018332	0.01995262314968883
1880.1619421788155	0.023713737056616554
1891.3649248743056	0.02818382931264455
1905.8300352938288	0.033496543915782793
1923.948171639924	0.03981071705534969
1946.0429024701739	0.04731512589614813
1972.3767005834422	0.056234132519034905
2004.7343713072319	0.06683439175686148
2043.2901521339309	0.07943282347242821
2087.7914644749058	0.09440608762859228
2137.3980240269852	0.11220184543019629
2190.0421958888273	0.1333521432163324
2241.2443496220008	0.1584893192461114
2287.6712802725747	0.18836490894898023
2326.641690436456	0.22387211385683378
2356.2378066512965	0.26607250597988086
2375.380809147729	0.3162277660168379
2389.298077587591	0.3758374042884443
2399.0196982503767	0.4466835921509634
2405.6214225636063	0.5308844442309879
2409.640098085425	0.630957344480193
2412.124672611025	0.7498942093324559
2413.816310314952	0.8912509381337458
2414.893481551599	1.0592537251772898
2415.513652364504	1.2589254117941662
2415.7463094667596	1.4962356560944328
2415.859810371063	1.7782794100389228
2415.9      	2.1134890398366473
2415.9      	2.511886431509582
2415.9      	2.9853826189179573
2415.9      	3.548133892335753
2415.8465027314787	4.216965034285823
2415.7674980372344	5.011872336272725
2415.7      	5.956621435290109
2415.7      	7.079457843841373
2415.631050911249	8.413951416451948
2415.5      	10.0        
