# T(K)	P(bar)
2920.4      	1e-08       
2823.686816372108	1.1885022274370215e-08
2777.9462455377243	1.4125375446227554e-08
2759.256900365882	1.6788040181225588e-08
2747.9338052968383	1.9952623149688826e-08
2737.596705764056	2.3713737056616554e-08
2728.201638189322	2.818382931264461e-08
2719.221575277222	3.3496543915782795e-08
2710.814228070362	3.981071705534969e-08
2703.1314086012953	4.731512589614813e-08
2696.469584673832	5.6234132519034905e-08
2690.5819690189996	6.683439175686162e-08
2685.024804554532	7.94328234724282e-08
2679.7064167050503	9.440608762859226e-08
2674.5633171550467	1.1220184543019653e-07
2669.759952822664	1.333521432163324e-07
2665.1106456436346	1.584893192461114e-07
2660.4981964173567	1.883649089489802e-07
2655.8871257280916	2.2387211385683422e-07
2651.3400135333586	2.6607250597988136e-07
2646.868933898057	3.162277660168379e-07
2642.1366840659957	3.7583740428844433e-07
2637.022308284184	4.466835921509635e-07
2631.4229781405074	5.308844442309889e-07
2625.4343636374056	6.309573444801942e-07
2619.025086230135	7.498942093324558e-07
2612.215523873081	8.912509381337459e-07
2604.9540361868585	1.0592537251772896e-06
2597.126718030525	1.2589254117941687e-06
2589.0612718190127	1.4962356560944327e-06
2580.6208591830837	1.7782794100389227e-06
2571.570256917463	2.1134890398366474e-06
2561.80455550377	2.511886431509582e-06
2551.2913350714825	2.9853826189179636e-06
2540.1532132985444	3.5481338923357534e-06
2527.933442499529	4.216965034285822e-06
2514.452140813892	5.011872336272725e-06
2499.307960373678	5.95662143529011e-06
2481.5581117134457	7.079457843841388e-06
2461.2216442147806	8.413951416451948e-06
2437.4575068243857	1e-05       
2409.364502273149	1.188502227437019e-05
2375.8935270767274	1.4125375446227555e-05
2336.22685008614	1.678804018122562e-05
2288.873214621406	1.9952623149688786e-05
2232.267941243164	2.371373705661655e-05
2167.1077300380225	2.818382931264455e-05
2096.4898969890232	3.349654391578279e-05
2036.9672648318856	3.981071705534977e-05
1989.7015874807435	4.731512589614803e-05
1954.5622131010448	5.623413251903491e-05
1930.9066462866576	6.683439175686148e-05
1916.9703280172255	7.943282347242821e-05
1909.055761808159	9.440608762859246e-05
1903.2121860543991	0.00011220184543019629
1899.1453571041209	0.0001333521432163324
1896.6394532988684	0.00015848931924611142
1895.2242937866272	0.00018836490894898024
1894.2193121220253	0.00022387211385683424
1893.4518982240015	0.0002660725059798809
1892.8853694413021	0.0003162277660168379
1892.4933536011195	0.00037583740428844437
1892.3383291200198	0.0004466835921509635
1892.4757937897125	0.0005308844442309889
1892.7494914452511	0.000630957344480193
1893.0513216022648	0.0007498942093324559
1893.291587996828	0.0008912509381337458
1893.8192793795456	0.0010592537251772895
1894.5216255904897	0.0012589254117941673
1895.4061951556553	0.0014962356560944345
1896.4707997996659	0.0017782794100389225
1897.6566829239503	0.0021134890398366475
1899.0854144042878	0.002511886431509582
1900.6665197864957	0.0029853826189179603
1902.3837901858196	0.0035481338923357567
1904.2229863350626	0.004216965034285822
1905.9391748182532	0.0050118723362727255
1907.647060754046	0.005956621435290103
1909.6158545908697	0.00707945784384138
1911.9223689855999	0.008413951416451957
1914.5      	0.01        
1916.9620699093814	0.01188502227437019
1920.163787420923	0.014125375446227554
1924.2515908172306	0.016788040181225587
1929.2238556908844	0.01995262314968883
1934.630953908032	0.023713737056616554
1941.2103923762725	0.02818382931264455
1949.4206961066868	0.033496543915782793
1959.2209951163925	0.03981071705534969
1970.4113302988296	0.04731512589614813
1982.4809877674109	0.056234132519034905
1996.5225918033386	0.06683439175686148
2012.3906914819947	0.07943282347242821
2029.8081899662247	0.09440608762859228
2048.342539493644	0.11220184543019629
2067.4086838482995	0.1333521432163324
2086.6010956898335	0.1584893192461114
2105.108596409728	0.18836490894898023
2122.210883563487	0.22387211385683378
2137.2083764162903	0.26607250597988086
2148.869462917061	0.3162277660168379
2158.3082498226527	0.3758374042884443
2165.577691715816	0.4466835921509634
2170.829406817088	0.5308844442309879
2174.1389043056442	0.630957344480193
2176.060096463536	0.7498942093324559
2177.247693946845	0.8912509381337458
2177.8967407757996	1.0592537251772898
2178.204550788168	1.2589254117941662
2178.2821031555864	1.4962356560944328
2178.240189628937	1.7782794100389228
2178.2      	2.1134890398366473
2178.181714164151	2.511886431509582
2178.1014605730647	2.9853826189179573
2178.1      	3.548133892335753
2178.0465027314785	4.216965034285823
2177.934996074469	5.011872336272725
2177.7875355373826	5.956621435290109
2177.7082951415778	7.079457843841373
2177.5621018224983	8.413951416451948
2177.4      	10.0        
