# T(K)	P(bar)
2997.0      	1e-08       
2994.691809459955	1.1885022274370215e-08
2994.054750831576	1.4125375446227554e-08
2993.999102090956	1.6788040181225588e-08
2993.772827773798	1.9952623149688826e-08
2993.613795473293	2.3713737056616554e-08
2993.3892968146115	2.818382931264461e-08
2993.106182892873	3.3496543915782795e-08
2992.816934888774	3.981071705534969e-08
2992.560671094194	4.731512589614813e-08
2992.1687990984606	5.6234132519034905e-08
2991.781214122905	6.683439175686162e-08
2991.261741712298	7.94328234724282e-08
2990.6258020881314	9.440608762859226e-08
2989.975749817831	1.1220184543019653e-07
2989.1235400169244	1.333521432163324e-07
2988.1531931079194	1.584893192461114e-07
2987.020192115133	1.883649089489802e-07
2985.679693237927	2.2387211385683422e-07
2984.084215274863	2.6607250597988136e-07
2982.2492140267823	3.162277660168379e-07
2980.06936325774	3.7583740428844433e-07
2977.5159869308786	4.466835921509635e-07
2974.5603692110767	5.308844442309889e-07
2971.172074163269	6.309573444801942e-07
2967.248862904369	7.498942093324558e-07
2962.9033751082998	8.912509381337459e-07
2959.071184957302	1.0592537251772896e-06
2956.8679098034304	1.2589254117941687e-06
2952.912739065093	1.4962356560944327e-06
2947.8730843966614	1.7782794100389227e-06
2942.630803689314	2.1134890398366474e-06
2937.803994043395	2.511886431509582e-06
2933.871568080173	2.9853826189179636e-06
2931.7616328211084	3.5481338923357534e-06
2930.993005462957	4.216965034285822e-06
2931.842556920203	5.011872336272725e-06
2934.161469415908	5.95662143529011e-06
2936.459440894241	7.079457843841388e-06
2938.3547781300194	8.413951416451948e-06
2941.2723384895357	1e-05       
2945.426243510405	1.188502227437019e-05
2950.655565379795	1.4125375446227555e-05
2955.8091100281786	1.678804018122562e-05
2961.36701627187	1.9952623149688786e-05
2968.332418087552	2.371373705661655e-05
2976.1309233221027	2.818382931264455e-05
2982.864755065464	3.349654391578279e-05
2987.0998711956618	3.981071705534977e-05
2991.7773091811696	4.731512589614803e-05
2996.3546379803847	5.623413251903491e-05
3000.03710662522	6.683439175686148e-05
3001.311284295568	7.943282347242821e-05
3000.7556892399325	9.440608762859246e-05
2999.902358591174	0.00011220184543019629
2997.4774999260494	0.0001333521432163324
2991.9653657038184	0.00015848931924611142
2982.8454488471534	0.00018836490894898024
2970.925770970507	0.00022387211385683424
2954.769921276049	0.0002660725059798809
2933.626087572903	0.0003162277660168379
2907.1740434233157	0.00037583740428844437
2876.2466594439447	0.0004466835921509635
2839.7112205572253	0.0005308844442309889
2797.69848616122	0.000630957344480193
2750.4829627138233	0.0007498942093324559
2698.9057766809447	0.0008912509381337458
2646.5815346470727	0.0010592537251772895
2593.216484492409	0.0012589254117941673
2539.402835030747	0.0014962356560944345
2485.434302441852	0.0017782794100389225
2431.5161497243885	0.0021134890398366475
2375.477718740073	0.002511886431509582
2313.5534313058106	0.0029853826189179603
2241.997944544242	0.0035481338923357567
2153.582829163587	0.004216965034285822
2015.195630564493	0.0050118723362727255
1750.180677939152	0.005956621435290103
1595.6989504417386	0.00707945784384138
1587.902754846	0.008413951416451957
1587.5      	0.01        
1593.6551747734536	0.01188502227437019
1601.9605981259756	0.014125375446227554
1612.1767322704661	0.016788040181225587
1624.028122548604	0.01995262314968883
1637.0687711899602	0.023713737056616554
1651.4040662843588	0.02818382931264455
1667.3692152313013	0.033496543915782793
1684.5468182307181	0.03981071705534969
1702.369800761277	0.04731512589614813
1720.0040405692694	0.056234132519034905
1737.9554218726093	0.06683439175686148
1755.9557966275852	0.07943282347242821
1773.5509204475695	0.09440608762859228
1790.3371067175515	0.11220184543019629
1805.6980894162414	0.1333521432163324
1820.9776978029167	0.1584893192461114
1836.257694618406	0.18836490894898023
1851.5589295777982	0.22387211385683378
1866.7957441250608	0.26607250597988086
1881.6792372012933	0.3162277660168379
1896.645053925723	0.3758374042884443
1911.5405112421759	0.4466835921509634
1926.1687471275284	0.5308844442309879
1939.8007248780107	0.630957344480193
1951.9870432658222	0.7498942093324559
1963.2438682824052	0.8912509381337458
1973.50548249819	1.0592537251772898
1982.7505280286348	1.2589254117941662
1990.428212403055	1.4962356560944328
1997.2240711692814	1.7782794100389228
2003.300683464813	2.1134890398366473
2008.6788643150958	2.511886431509582
2013.4138261891796	2.9853826189179573
2017.1237638735852	3.548133892335753
2020.332896203814	4.216965034285823
2023.0100549574372	5.011872336272725
2025.1368247897328	5.956621435290109
2026.64239231002	7.079457843841373
2027.6273890650098	8.413951416451948
2028.6      	10.0        
