# T(K)	P(bar)
3048.8      	1e-08       
3048.0306031533187	1.1885022274370215e-08
3047.1429900210874	1.4125375446227554e-08
3046.0955104547793	1.6788040181225588e-08
3044.841863851076	1.9952623149688826e-08
3043.331056996285	2.3713737056616554e-08
3041.58460891202	2.818382931264461e-08
3039.54328025011	3.3496543915782795e-08
3037.158595406106	3.981071705534969e-08
3034.3696371912283	4.731512589614813e-08
3031.07791242707	5.6234132519034905e-08
3027.312141229054	6.683439175686162e-08
3022.9207805562714	7.94328234724282e-08
3017.875768271149	9.440608762859226e-08
3012.2192259147396	1.1220184543019653e-07
3005.866389217072	1.333521432163324e-07
2999.0297984394424	1.584893192461114e-07
2991.57620071958	1.883649089489802e-07
2983.5664355134268	2.2387211385683422e-07
2975.4294979018	2.6607250597988136e-07
2967.923906691578	3.162277660168379e-07
2961.1162595711558	3.7583740428844433e-07
2954.9620853358992	4.466835921509635e-07
2949.3354418306976	5.308844442309889e-07
2944.21360047936	6.309573444801942e-07
2938.721502482973	7.498942093324558e-07
2932.4050626624503	8.912509381337459e-07
2924.77033230786	1.0592537251772896e-06
2915.0626549770827	1.2589254117941687e-06
2900.7930193720995	1.4962356560944327e-06
2880.274613133892	1.7782794100389227e-06
2852.3801556340586	2.1134890398366474e-06
2817.0925095528173	2.511886431509582e-06
2776.243431689959	2.9853826189179636e-06
2742.206669411435	3.5481338923357534e-06
2717.3837156473865	4.216965034285822e-06
2700.2271996968607	5.011872336272725e-06
2688.2671553971063	5.95662143529011e-06
2677.886663546703	7.079457843841388e-06
2667.285025752387	8.413951416451948e-06
2656.105186533212	1e-05       
2644.5225914997054	1.188502227437019e-05
2632.8405517001283	1.4125375446227555e-05
2621.9868743345937	1.678804018122562e-05
2611.7043954573296	1.9952623149688786e-05
2602.033393221786	2.371373705661655e-05
2592.9745271572965	2.818382931264455e-05
2584.2810861525118	3.349654391578279e-05
2576.50387289524	3.981071705534977e-05
2569.0840362282456	4.731512589614803e-05
2562.095566936379	5.623413251903491e-05
2555.6182010224343	6.683439175686148e-05
2549.8047654014713	7.943282347242821e-05
2544.818234595074	9.440608762859246e-05
2539.7129722514574	0.00011220184543019629
2534.4617856356394	0.0001333521432163324
2529.0310554119515	0.00015848931924611142
2523.13455744428	0.00018836490894898024
2515.3689810677215	0.00022387211385683424
2504.520400870033	0.0002660725059798809
2489.032875942058	0.0003162277660168379
2466.980689822197	0.00037583740428844437
2436.208330323925	0.0004466835921509635
2385.882109099832	0.0005308844442309889
2314.5898525559546	0.000630957344480193
2227.241330385428	0.0007498942093324559
2140.8255171409	0.0008912509381337458
2068.8842080574605	0.0010592537251772895
2004.943479768492	0.0012589254117941673
1953.2082876783495	0.0014962356560944345
1916.7206438464127	0.0017782794100389225
1893.9516878601523	0.0021134890398366475
1878.8870830747176	0.002511886431509582
1868.9498218470653	0.0029853826189179603
1863.2608592662898	0.0035481338923357567
1860.4049651047244	0.004216965034285822
1859.0788194586225	0.0050118723362727255
1858.3713897600762	0.005956621435290103
1858.1797038993477	0.00707945784384138
1858.3777961232	0.008413951416451957
1858.7      	0.01        
1858.7      	0.01188502227437019
1858.7      	0.014125375446227554
1858.8008979090441	0.016788040181225587
1858.9728277737975	0.01995262314968883
1858.813795473293	0.023713737056616554
1858.6595312097409	0.02818382931264455
1858.9876342142543	0.033496543915782793
1859.8983906673557	0.03981071705534969
1861.3730471855472	0.04731512589614813
1863.0972839667731	0.056234132519034905
1866.3965872446895	0.06683439175686148
1871.2711714472073	0.07943282347242821
1877.6468254644572	0.09440608762859228
1885.2833505857493	0.11220184543019629
1895.2409725361565	0.1333521432163324
1907.9312672590281	0.1584893192461114
1922.7925505320566	0.18836490894898023
1939.4675124257371	0.22387211385683378
1957.7357351028218	0.26607250597988086
1977.666848043193	0.3162277660168379
1999.2920702762135	0.3758374042884443
2022.1527733978246	0.4466835921509634
2045.6853997759438	0.5308844442309879
2068.694287077336	0.630957344480193
2090.5494139206194	0.7498942093324559
2111.505734433912	0.8912509381337458
2131.0449278629308	1.0592537251772898
2148.564532412229	1.2589254117941662
2161.593330138518	1.4962356560944328
2172.0762963828593	1.7782794100389228
2180.842375658384	2.1134890398366473
2188.1531518528323	2.511886431509582
2194.091917593208	2.9853826189179573
2198.201239277084	3.548133892335753
2201.3189071297284	4.216965034285823
2203.517537292547	5.011872336272725
2204.8997157009403	5.956621435290109
2205.533638867377	7.079457843841373
2205.737898177502	8.413951416451948
2206.0      	10.0        
