# T(K)	P(bar)
3046.2      	1e-08       
3045.4306031533183	1.1885022274370215e-08
3044.488239189511	1.4125375446227554e-08
3043.3618778184314	1.6788040181225588e-08
3042.0418638510764	1.9952623149688826e-08
3040.5310569962853	2.3713737056616554e-08
3038.7143745168905	2.818382931264461e-08
3036.594825973328	3.3496543915782795e-08
3034.1032186652888	3.981071705534969e-08
3031.161771410067	4.731512589614813e-08
3027.7916722467617	5.6234132519034905e-08
3023.820869702797	6.683439175686162e-08
3019.2784982703083	7.94328234724282e-08
3014.0886693152147	9.440608762859226e-08
3008.1126122286937	1.1220184543019653e-07
3001.5273546762337	1.333521432163324e-07
2994.342565019412	1.584893192461114e-07
2986.458772762755	1.883649089489802e-07
2977.9863588229086	2.2387211385683422e-07
2969.4505517205157	2.6607250597988136e-07
2961.7050584449257	3.162277660168379e-07
2954.5611534474456	3.7583740428844433e-07
2948.0416394393305	4.466835921509635e-07
2942.0638740278496	5.308844442309889e-07
2936.3904497617527	6.309573444801942e-07
2930.1578222722746	7.498942093324558e-07
2922.8782911368676	8.912509381337459e-07
2914.034998816762	1.0592537251772896e-06
2902.80792817937	1.2589254117941687e-06
2885.9015120821614	1.4962356560944327e-06
2861.1859908701194	1.7782794100389227e-06
2828.1408909768916	2.1134890398366474e-06
2787.285644386778	2.511886431509582e-06
2741.1398295122326	2.9853826189179636e-06
2705.496767797441	3.5481338923357534e-06
2680.1302183788653	4.216965034285822e-06
2662.3746663298452	5.011872336272725e-06
2648.9056859811985	5.95662143529011e-06
2636.2272226524615	7.079457843841388e-06
2623.10970582361	8.413951416451948e-06
2609.063421292084	1e-05       
2594.2540574311233	1.188502227437019e-05
2579.029938941177	1.4125375446227555e-05
2564.662481133563	1.678804018122562e-05
2550.889111454122	1.9952623149688786e-05
2537.519912772368	2.371373705661655e-05
2524.5442156560453	2.818382931264455e-05
2511.823395276007	3.349654391578279e-05
2500.273078557287	3.981071705534977e-05
2489.035840262483	4.731512589614803e-05
2477.9359494476707	5.623413251903491e-05
2466.8549553574785	6.683439175686148e-05
2455.8651729507264	7.943282347242821e-05
2444.9342080078204	9.440608762859246e-05
2432.1843961212885	0.00011220184543019629
2417.4117854713045	0.0001333521432163324
2399.9885446031108	0.00015848931924611142
2376.088072840816	0.00018836490894898024
2344.390408362406	0.00022387211385683424
2303.118315912122	0.0002660725059798809
2252.3097906535995	0.0003162277660168379
2194.0598595604397	0.00037583740428844437
2144.1419766463673	0.0004466835921509635
2099.21955097326	0.0005308844442309889
2059.6811952997564	0.000630957344480193
2025.7729789252046	0.0007498942093324559
1996.6206563848818	0.0008912509381337458
1973.7902660590887	0.0010592537251772895
1954.0982863006398	0.0012589254117941673
1937.6257256328697	0.0014962356560944345
1924.274188456317	0.0017782794100389225
1913.6802992127098	0.0021134890398366475
1904.0109796772801	0.002511886431509582
1895.4435495779485	0.0029853826189179603
1888.3486294425406	0.0035481338923357567
1882.870173010514	0.004216965034285822
1878.2676675328664	0.0050118723362727255
1874.1160382177097	0.005956621435290103
1870.5457739627172	0.00707945784384138
1867.5970800452	0.008413951416451957
1865.1      	0.01        
1862.5609904059504	0.01188502227437019
1860.2122258842942	0.014125375446227554
1858.1600820003432	0.016788040181225587
1856.414691624874	0.01995262314968883
1854.7448524695783	0.023713737056616554
1853.3357808876676	0.02818382931264455
1852.606182892873	0.033496543915782793
1852.6215069632692	0.03981071705534969
1853.3337182797409	0.04731512589614813
1854.6660830652338	0.056234132519034905
1857.6415585430138	0.06683439175686148
1862.1597600173936	0.07943282347242821
1868.20327598649	0.09440608762859228
1875.6767610372438	0.11220184543019629
1885.4028103841529	0.1333521432163324
1898.1459103134168	0.1584893192461114
1913.708596409728	0.18836490894898023
1931.78781918781	0.22387211385683378
1951.6515198279592	0.26607250597988086
1973.5635328475123	0.3162277660168379
1997.7798555916677	0.3758374042884443
2023.898124156653	0.4466835921509634
2051.327270283221	0.5308844442309879
2078.5124282249344	0.630957344480193
2104.6660231005294	0.7498942093324559
2129.6994347734517	0.8912509381337458
2152.9365208148774	1.0592537251772898
2173.6692005400937	1.2589254117941662
2188.4817027170056	1.4962356560944328
2199.7949689802995	1.7782794100389228
2208.6494696966115	2.1134890398366473
2215.5434368377378	2.511886431509582
2221.0006810315967	2.9853826189179573
2224.7237638735855	3.548133892335753
2227.6119125926857	4.216965034285823
2229.7500392553125	5.011872336272725
2231.224644626175	5.956621435290109
2232.017048584221	7.079457843841373
2232.3068472662526	8.413951416451948
2232.6      	10.0        
