# T(K)	P(bar)
2937.6      	1e-08       
2853.3510452883515	1.1885022274370215e-08
2807.732690653704	1.4125375446227554e-08
2785.888737184142	1.6788040181225588e-08
2774.4647692195595	1.9952623149688826e-08
2765.479444241064	2.3713737056616554e-08
2757.2551541162657	2.818382931264461e-08
2749.3030265986035	3.3496543915782795e-08
2741.7080466632224	3.981071705534969e-08
2734.594334850585	4.731512589614813e-08
2728.5595061162944	5.6234132519034905e-08
2723.4195407731886	6.683439175686162e-08
2718.8167565580106	7.94328234724282e-08
2714.698362006755	9.440608762859226e-08
2711.00961295737	1.1220184543019653e-07
2707.8331946085364	1.333521432163324e-07
2704.931919375777	1.584893192461114e-07
2702.2403842302656	1.883649089489802e-07
2699.7515705330975	2.2387211385683422e-07
2697.517901384808	2.6607250597988136e-07
2695.503315195681	3.162277660168379e-07
2693.52446938145	3.7583740428844433e-07
2691.517101672301	4.466835921509635e-07
2689.393280844937	5.308844442309889e-07
2687.029354067397	6.309573444801942e-07
2684.4434872836264	7.498942093324558e-07
2681.59876300199	8.912509381337459e-07
2678.5567774359533	1.0592537251772896e-06
2675.427070049615	1.2589254117941687e-06
2672.4800800877165	1.4962356560944327e-06
2669.6468266417364	1.7782794100389227e-06
2666.8882394599477	2.1134890398366474e-06
2664.2331390886784	2.511886431509582e-06
2661.7452777650074	2.9853826189179636e-06
2659.435147579009	3.5481338923357534e-06
2657.1485792128788	4.216965034285822e-06
2654.9224470053286	5.011872336272725e-06
2652.775923971945	5.95662143529011e-06
2650.715673681025	7.079457843841388e-06
2648.914170958731	8.413951416451948e-06
2647.302729754322	1e-05       
2645.8750785205157	1.188502227437019e-05
2644.6102674251915	1.4125375446227555e-05
2643.59517529748	1.678804018122562e-05
2642.6492575991447	1.9952623149688786e-05
2641.6247198715946	2.371373705661655e-05
2640.4084816295244	2.818382931264455e-05
2638.8682111496814	3.349654391578279e-05
2636.7891541403114	3.981071705534977e-05
2634.0126603537806	4.731512589614803e-05
2630.4453620196155	5.623413251903491e-05
2625.903381858358	6.683439175686148e-05
2620.0103101329983	7.943282347242821e-05
2612.440991554803	9.440608762859246e-05
2603.175354855121	0.00011220184543019629
2591.724285512388	0.0001333521432163324
2577.573439586421	0.00015848931924611142
2560.5915254395272	0.00018836490894898024
2541.0501533003803	0.00022387211385683424
2518.859157956061	0.0002660725059798809
2493.913417561591	0.0003162277660168379
2466.1139218165995	0.00037583740428844437
2436.116684723826	0.0004466835921509635
2404.264663229945	0.0005308844442309889
2371.9013640296416	0.000630957344480193
2340.2019069176554	0.0007498942093324559
2310.248696395455	0.0008912509381337458
2283.8294931707765	0.0010592537251772895
2259.507719962457	0.0012589254117941673
2237.64478360496	0.0014962356560944345
2218.4885093778535	0.0017782794100389225
2202.439557762538	0.0021134890398366475
2189.946071206901	0.002511886431509582
2178.1803862462675	0.0029853826189179603
2166.797258885081	0.0035481338923357567
2155.773262565539	0.004216965034285822
2145.6321488012313	0.0050118723362727255
2135.7237856470992	0.005956621435290103
2125.8583582404344	0.00707945784384138
2116.0661163040004	0.008413951416451957
2106.4      	0.01        
2097.0902981551517	0.01188502227437019
2087.7299002108725	0.014125375446227554
2078.129553092843	0.016788040181225587
2068.106633070636	0.01995262314968883
2057.610501237349	0.023713737056616554
2046.3053095208238	0.02818382931264455
2033.8081357774424	0.033496543915782793
2020.0222747335843	0.03981071705534969
2004.7773939256904	0.04731512589614813
1987.6134005125778	0.056234132519034905
1968.2781630927554	0.06683439175686148
1947.456935932165	0.07943282347242821
1925.755496257481	0.09440608762859228
1903.7630103111062	0.11220184543019629
1881.3776586396482	0.1333521432163324
1858.2608633688608	0.1584893192461114
1834.737316137153	0.18836490894898023
1811.059459921318	0.22387211385683378
1787.4463860679684	0.26607250597988086
1767.3061013723577	0.3162277660168379
1752.187625266021	0.3758374042884443
1742.201862387615	0.4466835921509634
1736.8750726196206	0.5308844442309879
1735.1415263160911	0.630957344480193
1735.2318401053492	0.7498942093324559
1735.937232736214	0.8912509381337458
1736.817666745549	1.0592537251772898
1737.509101576336	1.2589254117941662
1737.6642063111728	1.4962356560944328
1737.5205688868114	1.7782794100389228
1737.2456752305823	2.1134890398366473
1736.9451424924528	2.511886431509582
1736.7043817191943	2.9853826189179573
1736.5490098386006	3.548133892335753
1736.5      	4.216965034285823
1736.4674980372345	5.011872336272725
1736.4      	5.956621435290109
1736.4      	7.079457843841373
1736.4689490887508	8.413951416451948
1736.5      	10.0        
