# T(K)	P(bar)
2940.8      	1e-08       
2859.166994567069	1.1885022274370215e-08
2814.7159464747365	1.4125375446227554e-08
2793.3232677295337	1.6788040181225588e-08
2782.205527558863	1.9952623149688826e-08
2773.458751031124	2.3713737056616554e-08
2765.3956229065247	2.818382931264461e-08
2757.6968437057308	3.3496543915782795e-08
2750.4464885152656	3.981071705534969e-08
2743.7415295375527	4.731512589614813e-08
2738.1769471981415	5.6234132519034905e-08
2733.5020838257024	6.683439175686162e-08
2729.41273255975	7.94328234724282e-08
2725.8725599186237	9.440608762859226e-08
2722.829454015508	1.1220184543019653e-07
2720.3502982310524	1.333521432163324e-07
2718.1489395318326	1.584893192461114e-07
2716.2027641583077	1.883649089489802e-07
2714.5437545903415	2.2387211385683422e-07
2713.26737221989	2.6607250597988136e-07
2712.1787081822895	3.162277660168379e-07
2711.238766527838	3.7583740428844433e-07
2710.3085508361505	4.466835921509635e-07
2709.2364164506334	5.308844442309889e-07
2707.975655502612	6.309573444801942e-07
2706.6053756207434	7.498942093324558e-07
2705.1046121063105	8.912509381337459e-07
2703.5646665089016	1.0592537251772896e-06
2702.1317381774793	1.2589254117941687e-06
2700.9684526662036	1.4962356560944327e-06
2700.101896289371	1.7782794100389227e-06
2699.545675230582	2.1134890398366474e-06
2699.3365716716985	2.511886431509582e-06
2699.4970788538703	2.9853826189179636e-06
2700.028465564898	3.5481338923357534e-06
2700.9489617593	4.216965034285822e-06
2702.3150431808435	5.011872336272725e-06
2704.186398341143	5.95662143529011e-06
2706.6428506110856	7.079457843841388e-06
2709.7958617275344	8.413951416451948e-06
2713.744585987261	1e-05       
2718.532473880276	1.188502227437019e-05
2724.152200460358	1.4125375446227555e-05
2730.398921246277	1.678804018122562e-05
2737.105444272939	1.9952623149688786e-05
2744.3447780233496	2.371373705661655e-05
2751.916379392328	2.818382931264455e-05
2759.4036081047425	3.349654391578279e-05
2766.1797939130583	3.981071705534977e-05
2772.811193084165	4.731512589614803e-05
2779.1594808775326	5.623413251903491e-05
2784.915054024193	6.683439175686148e-05
2789.2950397660147	7.943282347242821e-05
2792.034062871367	9.440608762859246e-05
2794.095675916181	0.00011220184543019629
2794.823928556169	0.0001333521432163324
2793.4005213742576	0.00015848931924611142
2788.9978028917294	0.00018836490894898024
2782.184611622532	0.00022387211385683424
2772.0685026460314	0.0002660725059798809
2757.697733182505	0.0003162277660168379
2738.1797777718243	0.00037583740428844437
2714.3835199230352	0.0004466835921509635
2687.521941094293	0.0005308844442309889
2657.4518725843905	0.000630957344480193
2624.5096892738693	0.0007498942093324559
2589.911328456783	0.0008912509381337458
2554.946840329542	0.0010592537251772895
2518.422784451741	0.0012589254117941673
2480.577041897145	0.0014962356560944345
2441.823019757377	0.0017782794100389225
2403.7957009053234	0.0021134890398366475
2366.658719554611	0.002511886431509582
2329.008119165811	0.0029853826189179603
2290.535819913878	0.0035481338923357567
2250.637147382582	0.004216965034285822
2209.292606651173	0.0050118723362727255
2163.984439503663	0.005956621435290103
2113.302154724997	0.00707945784384138
2055.735100559202	0.008413951416451957
1989.2      	0.01        
1910.7215216384657	0.01188502227437019
1830.8613943082303	0.014125375446227554
1760.8244198290668	0.016788040181225587
1709.7856187538684	0.01995262314968883
1682.1935146163648	0.023713737056616554
1668.702965569528	0.02818382931264455
1661.577286160911	0.033496543915782793
1659.4153255561296	0.03981071705534969
1660.9247521827065	0.04731512589614813
1665.1569697366247	0.056234132519034905
1671.9569316647978	0.06683439175686148
1680.643003459383	0.07943282347242821
1690.8702381966857	0.09440608762859228
1702.240460006133	0.11220184543019629
1714.205044520188	0.1333521432163324
1726.915373514278	0.1584893192461114
1739.9792688126927	0.18836490894898023
1753.1105001108958	0.22387211385683378
1766.1136455098688	0.26607250597988086
1778.3260076570173	0.3162277660168379
1790.4572686102688	0.3758374042884443
1802.4564981730546	0.4466835921509634
1814.25180400063	0.5308844442309879
1825.4410574143208	0.630957344480193
1835.7605787812163	0.7498942093324559
1845.4380191780845	0.8912509381337458
1854.2943342010415	1.0592537251772898
1862.127656748098	1.2589254117941662
1867.711427202222	1.4962356560944328
1872.1699496663323	1.7782794100389228
1875.8046665018244	2.1134890398366473
1878.7485750754724	2.511886431509582
1881.1561828080576	2.9853826189179573
1882.936386856093	3.548133892335753
1884.4094535648642	4.216965034285823
1885.5575215904219	5.011872336272725
1886.39971570094	5.956621435290109
1887.0336388673768	7.079457843841373
1887.444745443754	8.413951416451948
1887.9      	10.0        
