# T(K)	P(bar)
3010.5      	1e-08       
2982.1861960421124	1.1885022274370215e-08
2968.1154151792416	1.4125375446227554e-08
2957.681553911789	1.6788040181225588e-08
2943.3605023618397	1.9952623149688826e-08
2926.7416269591363	2.3713737056616554e-08
2908.3735107737734	2.818382931264461e-08
2888.8926136974274	3.3496543915782795e-08
2869.182479472335	3.981071705534969e-08
2850.3111122054315	4.731512589614813e-08
2834.479483577811	5.6234132519034905e-08
2821.8176378100666	6.683439175686162e-08
2811.506666258133	7.94328234724282e-08
2803.270921925379	9.440608762859226e-08
2796.5434760969083	1.1220184543019653e-07
2791.042849200148	1.333521432163324e-07
2785.6361788035724	1.584893192461114e-07
2780.163340503706	1.883649089489802e-07
2774.5629109946403	2.2387211385683422e-07
2768.8989642257625	2.6607250597988136e-07
2763.5664903269985	3.162277660168379e-07
2758.4346416165117	3.7583740428844433e-07
2753.6137574480335	4.466835921509635e-07
2749.2296972955705	5.308844442309889e-07
2745.6050095700084	6.309573444801942e-07
2742.644383220417	7.498942093324558e-07
2740.10168755415	8.912509381337459e-07
2738.0162961210017	1.0592537251772896e-06
2736.4408397538155	1.2589254117941687e-06
2735.4326589773764	1.4962356560944327e-06
2734.78132740256	1.7782794100389227e-06
2734.6157435770633	2.1134890398366474e-06
2734.982858358491	2.511886431509582e-06
2735.7853942693528	2.9853826189179636e-06
2736.9324262104956	3.5481338923357534e-06
2738.2629508333857	4.216965034285822e-06
2739.8475451436093	5.011872336272725e-06
2741.6991471028205	5.95662143529011e-06
2743.600916602131	7.079457843841388e-06
2745.7305744850228	8.413951416451948e-06
2748.3945404913557	1e-05       
2751.780994808324	1.188502227437019e-05
2756.0141503452683	1.4125375446227555e-05
2760.6991909347075	1.678804018122562e-05
2765.979330671656	1.9952623149688786e-05
2772.1338636459172	2.371373705661655e-05
2779.0545607022527	2.818382931264455e-05
2786.3047854695687	3.349654391578279e-05
2793.1579733893427	3.981071705534977e-05
2800.4281350356628	4.731512589614803e-05
2807.8893579274745	5.623413251903491e-05
2815.170713962023	6.683439175686148e-05
2821.461966209367	7.943282347242821e-05
2826.338585236022	9.440608762859246e-05
2830.2913518323617	0.00011220184543019629
2832.644642863012	0.0001333521432163324
2832.607552508345	0.00015848931924611142
2829.1482737006445	0.00018836490894898024
2822.5496689456963	0.00022387211385683424
2812.6860662560307	0.0002660725059798809
2799.0562554172966	0.0003162277660168379
2781.1661809572724	0.00037583740428844437
2759.3852413627783	0.0004466835921509635
2734.1353017624733	0.0005308844442309889
2705.3750926427692	0.000630957344480193
2673.2241532700946	0.0007498942093324559
2638.2253484620696	0.0008912509381337458
2602.2082815704507	0.0010592537251772895
2564.9576465383984	0.0012589254117941673
2528.370576738562	0.0014962356560944345
2494.352778314972	0.0017782794100389225
2464.863817957767	0.0021134890398366475
2438.7714212301153	0.002511886431509582
2413.8704012164667	0.0029853826189179603
2389.8122563123115	0.0035481338923357567
2366.0949621729956	0.004216965034285822
2342.302349110581	0.0050118723362727255
2317.522698929236	0.005956621435290103
2291.330781261846	0.00707945784384138
2263.542756665601	0.008413951416451957
2233.9      	0.01        
2203.6627039254086	0.01188502227437019
2171.604650738053	0.014125375446227554
2137.566211552425	0.016788040181225587
2100.984668431467	0.01995262314968883
2060.5109479531116	0.023713737056616554
2015.9128788492023	0.02818382931264455
1964.3397348688438	0.033496543915782793
1905.5724199690017	0.03981071705534969
1841.6512688103626	0.04731512589614813
1788.3566773906525	0.056234132519034905
1756.3662027262822	0.06683439175686148
1729.3777164884361	0.07943282347242821
1702.457066616761	0.09440608762859228
1674.6880947040588	0.11220184543019629
1663.7269914718277	0.1333521432163324
1663.4367902509446	0.1584893192461114
1669.02379928042	0.18836490894898023
1677.305825234335	0.22387211385683378
1686.7989191145668	0.26607250597988086
1697.2940699304518	0.3162277660168379
1707.7858228906866	0.3758374042884443
1718.0639342677825	0.4466835921509634
1727.9450848455674	0.5308844442309879
1736.7704114817177	0.630957344480193
1744.0394899173536	0.7498942093324559
1750.2338576279137	0.8912509381337458
1755.4543708611952	1.0592537251772898
1759.8820315267212	1.2589254117941662
1762.9841262234568	1.4962356560944328
1765.4345007608233	1.7782794100389228
1767.3716238470893	2.1134890398366473
1768.8560017018872	2.511886431509582
1769.9795519770935	2.9853826189179573
1770.528465564898	3.548133892335753
1770.9139890740857	4.216965034285823
1771.1325019627657	5.011872336272725
1771.2124644626176	5.956621435290109
1771.291704858422	7.079457843841373
1771.3      	8.413951416451948
1771.4      	10.0        
