# T(K)	P(bar)
3010.5      	1e-08       
2982.1092563574443	1.1885022274370215e-08
2968.0154151792417	1.4125375446227554e-08
2957.581553911789	1.6788040181225588e-08
2943.2469162487387	1.9952623149688826e-08
2926.548524695783	2.3713737056616554e-08
2908.1032763786443	2.818382931264461e-08
2888.5926136974276	3.3496543915782795e-08
2868.8547911019264	3.981071705534969e-08
2849.90324642427	4.731512589614813e-08
2833.9932433975036	5.6234132519034905e-08
2821.3176378100666	6.683439175686162e-08
2810.9643839721703	7.94328234724282e-08
2802.6926966643623	9.440608762859226e-08
2796.041271534893	1.1220184543019653e-07
2790.4631710198682	1.333521432163324e-07
2785.0361788035725	1.584893192461114e-07
2779.563340503706	1.883649089489802e-07
2773.9629109946404	2.2387211385683422e-07
2768.2989642257626	2.6607250597988136e-07
2762.9664903269986	3.162277660168379e-07
2757.8346416165114	3.7583740428844433e-07
2752.983645973891	4.466835921509635e-07
2748.519473323735	5.308844442309889e-07
2744.815988038922	6.309573444801942e-07
2741.8443832204166	7.498942093324558e-07
2739.30168755415	8.912509381337459e-07
2737.2162961210015	1.0592537251772896e-06
2735.6362889656475	1.2589254117941687e-06
2734.55055582179	1.4962356560944327e-06
2733.8813274025597	1.7782794100389227e-06
2733.638581192354	2.1134890398366474e-06
2733.8645725226415	2.511886431509582e-06
2734.5868548424173	2.9853826189179636e-06
2735.7324262104953	3.5481338923357534e-06
2737.009453564864	4.216965034285822e-06
2738.515043180844	5.011872336272725e-06
2740.286682640203	5.95662143529011e-06
2742.109211743709	7.079457843841388e-06
2744.161625396272	8.413951416451948e-06
2746.7945404913557	1e-05       
2750.1278796233887	1.188502227437019e-05
2754.207247839514	1.4125375446227555e-05
2758.814204419129	1.678804018122562e-05
2764.016768804918	1.9952623149688786e-05
2770.0927722081738	2.371373705661655e-05
2776.9133482422026	2.818382931264455e-05
2784.0036081047424	3.349654391578279e-05
2790.7797939130583	3.981071705534977e-05
2797.8598781398	4.731512589614803e-05
2805.1193715885925	5.623413251903491e-05
2812.2410756338704	6.683439175686148e-05
2818.373055672421	7.943282347242821e-05
2822.952224898214	9.440608762859246e-05
2826.59213802942	0.00011220184543019629
2828.6      	0.0001333521432163324
2828.162956202475	0.00015848931924611142
2824.310577530263	0.00018836490894898024
2817.12921036038	0.00022387211385683424
2806.5074263140327	0.0002660725059798809
2791.9582159646825	0.0003162277660168379
2773.016332965668	0.00037583740428844437
2750.0727097629265	0.0004466835921509635
2723.4805390241977	0.0005308844442309889
2692.9660253873244	0.000630957344480193
2658.764902054241	0.0007498942093324559
2622.0842324842747	0.0008912509381337458
2583.8569812837623	0.0010592537251772895
2545.075208152664	0.0012589254117941673
2507.5831020513365	0.0014962356560944345
2473.1755516215944	0.0017782794100389225
2443.8447090142936	0.0021134890398366475
2418.3126483477104	0.002511886431509582
2394.452821996011	0.0029853826189179603
2371.718371224186	0.0035481338923357567
2349.312358220101	0.004216965034285822
2327.157925073459	0.0050118723362727255
2304.253449786106	0.005956621435290103
2279.947376104346	0.00707945784384138
2254.0484314664004	0.008413951416451957
2226.5      	0.01        
2197.9553769881086	0.01188502227437019
2167.7186706958787	0.014125375446227554
2135.6742927338228	0.016788040181225587
2101.3058379376057	0.01995262314968883
2063.2971181170674	0.023713737056616554
2021.722254654385	0.02818382931264455
1974.150082922187	0.033496543915782793
1920.0060338231115	0.03981071705534969
1860.4771213089425	0.04731512589614813
1808.4365202755785	0.056234132519034905
1774.3071872357818	0.06683439175686148
1746.2736924901756	0.07943282347242821
1719.6699676608268	0.09440608762859228
1691.4409281207627	0.11220184543019629
1675.3080367437465	0.1333521432163324
1671.8598229079166	0.1584893192461114
1675.7251813595738	0.18836490894898023
1683.177702529506	0.22387211385683378
1692.0326052245118	0.26607250597988086
1702.0563734371472	0.3162277660168379
1712.4878653401706	0.3758374042884443
1722.924157216067	0.4466835921509634
1732.9757567610736	0.5308844442309879
1742.037476074978	0.630957344480193
1749.4722259594932	0.7498942093324559
1755.7786270225981	0.8912509381337458
1761.0543708611951	1.0592537251772898
1765.4865823148891	1.2589254117941662
1768.6662293790432	1.4962356560944328
1771.1943111318863	1.7782794100389228
1773.210205039444	2.1134890398366473
1774.7560017018873	2.511886431509582
1775.8795519770936	2.9853826189179573
1776.4284655648978	3.548133892335753
1776.8139890740856	4.216965034285823
1777.0650039255313	5.011872336272725
1777.2      	5.956621435290109
1777.2      	7.079457843841373
1777.2689490887508	8.413951416451948
1777.3      	10.0        
