# T(K)	P(bar)
2940.9      	1e-08       
2859.574753305742	1.1885022274370215e-08
2815.4349498010406	1.4125375446227554e-08
2794.256900365882	1.6788040181225588e-08
2783.2191136719644	1.9952623149688826e-08
2774.551853294478	2.3713737056616554e-08
2766.6360916967838	2.818382931264461e-08
2759.0452979825122	3.3496543915782795e-08
2751.8741768856744	3.981071705534969e-08
2745.2415295375527	4.731512589614813e-08
2739.6769471981415	5.6234132519034905e-08
2735.065841001121	6.683439175686162e-08
2731.055014845713	7.94328234724282e-08
2727.5943346576073	9.440608762859226e-08
2724.6316585775235	1.1220184543019653e-07
2722.2299764113322	1.333521432163324e-07
2720.163832899845	1.584893192461114e-07
2718.339002151112	1.883649089489802e-07
2716.759769928445	2.2387211385683422e-07
2715.563161456147	2.6607250597988136e-07
2714.624607013391	3.162277660168379e-07
2713.78978775258	3.7583740428844433e-07
2712.968773784435	4.466835921509635e-07
2712.067088366139	5.308844442309889e-07
2711.042720095872	6.309573444801942e-07
2709.838111662883	7.498942093324558e-07
2708.538920290364	8.912509381337459e-07
2707.2372220907514	1.0592537251772896e-06
2706.0453905419836	1.2589254117941687e-06
2705.1147621329633	1.4962356560944327e-06
2704.5411377736227	1.7782794100389227e-06
2704.3385811923545	2.1134890398366474e-06
2704.5280008509435	2.511886431509582e-06
2705.0897759885465	2.9853826189179636e-06
2706.156931129796	3.5481338923357534e-06
2707.5699453704283	4.216965034285822e-06
2709.4750588829684	5.011872336272725e-06
2711.986114042083	5.95662143529011e-06
2715.0764894784625	7.079457843841388e-06
2718.847454437541	8.413951416451948e-06
2723.375159235669	1e-05       
2728.771492212486	1.188502227437019e-05
2735.1074205063937	1.4125375446227555e-05
2741.978813370905	1.678804018122562e-05
2749.243377340105	1.9952623149688786e-05
2756.991326649809	2.371373705661655e-05
2765.019410542453	2.818382931264455e-05
2772.9059628343957	3.349654391578279e-05
2779.836152865628	3.981071705534977e-05
2786.3990218202566	4.731512589614803e-05
2792.414528691444	5.623413251903491e-05
2797.566862383431	6.683439175686148e-05
2801.150487081285	7.943282347242821e-05
2802.4738512667795	9.440608762859246e-05
2802.302358591174	0.00011220184543019629
2800.0510713616636	0.0001333521432163324
2795.0456390543845	0.00015848931924611142
2786.63330195384	0.00018836490894898024
2775.0209429400006	0.00022387211385683424
2760.014226604044	0.0002660725059798809
2741.3953192716203	0.0003162277660168379
2719.1066673841374	0.00037583740428844437
2693.6051402432527	0.0004466835921509635
2664.6226011270714	0.0005308844442309889
2634.02458408802	0.000630957344480193
2603.3558717244496	0.0007498942093324559
2574.1234603859393	0.0008912509381337458
2547.506944865257	0.0010592537251772895
2521.229867836694	0.0012589254117941673
2495.051383765008	0.0014962356560944345
2468.6513111808595	0.0017782794100389225
2441.929411446984	0.0021134890398366475
2415.0889669949256	0.002511886431509582
2387.507237884786	0.0029853826189179603
2359.4400897567657	0.0035481338923357567
2331.1210380630832	0.004216965034285822
2303.5060051971986	0.0050118723362727255
2275.657187661068	0.005956621435290103
2246.9547786206504	0.00707945784384138
2217.0565308956006	0.008413951416451957
2185.4      	0.01        
2152.3928752773545	0.01188502227437019
2116.4933550013698	0.014125375446227554
2076.6029479176213	0.016788040181225587
2031.2924070138754	0.01995262314968883
1978.5731993966856	0.023713737056616554
1912.755607447016	0.02818382931264455
1821.9681776659759	0.033496543915782793
1726.3360992964797	0.03981071705534969
1655.8898245403932	0.04731512589614813
1647.81726142829	0.056234132519034905
1633.3935362145396	0.06683439175686148
1619.150269674032	0.07943282347242821
1608.8201367457386	0.09440608762859228
1605.4493630994648	0.11220184543019629
1610.6983421120824	0.1333521432163324
1619.4944770080833	0.1584893192461114
1630.290746949413	0.18836490894898023
1642.0503467298593	0.22387211385683378
1654.2557531473003	0.26607250597988086
1666.2071594103652	0.3162277660168379
1677.4409290143967	0.3758374042884443
1687.66281952636	0.4466835921509634
1696.6712773243653	0.5308844442309879
1704.1570454532427	0.630957344480193
1710.2439696013064	0.7498942093324559
1715.486163681069	0.8912509381337458
1719.9608893095958	1.0592537251772898
1723.7456252213767	1.2589254117941662
1726.2273009787652	1.4962356560944328
1728.0560177923203	1.7782794100389228
1729.3243931158993	2.1134890398366473
1730.1280008509436	2.511886431509582
1730.6897759885467	2.9853826189179573
1730.926485242099	3.548133892335753
1731.106994537043	4.216965034285823
1731.2      	5.011872336272725
1731.2124644626176	5.956621435290109
1731.291704858422	7.079457843841373
1731.368949088751	8.413951416451948
1731.4      	10.0        
