# T(K)	P(bar)
2939.8      	1e-08       
2857.2437183510515	1.1885022274370215e-08
2812.2421923168563	1.4125375446227554e-08
2790.5223698204895	1.6788040181225588e-08
2779.1783553326604	1.9952623149688826e-08
2770.2725465044173	2.3713737056616554e-08
2762.125388511395	2.818382931264461e-08
2754.299935152167	3.3496543915782795e-08
2746.8911117744483	3.981071705534969e-08
2740.0179321940686	4.731512589614813e-08
2734.218226657218	5.6234132519034905e-08
2729.3745694748645	6.683439175686162e-08
2725.0858857018616	7.94328234724282e-08
2721.3072357016727	9.440608762859226e-08
2718.022840329462	1.1220184543019653e-07
2715.3112636902138	1.333521432163324e-07
2712.819152795808	1.584893192461114e-07
2710.594050179895	1.883649089489802e-07
2708.663677899823	2.2387211385683422e-07
2706.988426038606	2.6607250597988136e-07
2705.586910520087	3.162277660168379e-07
2704.232639179386	3.7583740428844433e-07
2702.8579934654394	4.466835921509635e-07
2701.385296591456	5.308844442309889e-07
2699.730547847178	6.309573444801942e-07
2697.8407994732543	7.498942093324558e-07
2695.7464569488343	8.912509381337459e-07
2693.571184957302	1.0592537251772896e-06
2691.486230295799	1.2589254117941687e-06
2689.5474211103397	1.4962356560944327e-06
2687.84398220768	1.7782794100389227e-06
2686.3827009223287	2.1134890398366474e-06
2685.19885580566	2.511886431509582e-06
2684.3160663037124	2.9853826189179636e-06
2683.7715344351022	3.5481338923357534e-06
2683.439508194436	4.216965034285822e-06
2683.3650039255313	5.011872336272725e-06
2683.6121801635577	5.95662143529011e-06
2684.325343725799	7.079457843841388e-06
2685.641083597515	8.413951416451948e-06
2687.475068243858	1e-05       
2689.8826309213077	1.188502227437019e-05
2692.910612758951	1.4125375446227555e-05
2696.424393201031	1.678804018122562e-05
2700.1655314701593	1.9952623149688786e-05
2704.0545718871613	2.371373705661655e-05
2707.9890990412014	2.818382931264455e-05
2711.8482719578915	3.349654391578279e-05
2715.005358527675	3.981071705534977e-05
2717.8629971184023	4.731512589614803e-05
2720.3098224054716	5.623413251903491e-05
2722.177829968915	6.683439175686148e-05
2723.133463221676	7.943282347242821e-05
2723.056819831096	9.440608762859246e-05
2722.3525551404387	0.00011220184543019629
2720.918928539735	0.0001333521432163324
2718.6164717695187	0.00015848931924611142
2715.2358129347203	0.00018836490894898024
2711.0567899027847	0.00022387211385683424
2705.8800585720146	0.0002660725059798809
2699.384462714304	0.0003162277660168379
2691.151368075558	0.00037583740428844437
2680.6872156013346	0.0004466835921509635
2667.962558126572	0.0005308844442309889
2652.42847906594	0.000630957344480193
2633.7810557961684	0.0007498942093324559
2612.1570802854894	0.0008912509381337458
2588.2549762259714	0.0010592537251772895
2561.682291537617	0.0012589254117941673
2532.4516537679356	0.0014962356560944345
2500.546805809686	0.0017782794100389225
2466.1561952054385	0.0021134890398366475
2429.932293282506	0.002511886431509582
2390.8512281032467	0.0029853826189179603
2348.6844493564186	0.0035481338923357567
2302.9551322517805	0.004216965034285822
2252.0935462954058	0.0050118723362727255
2192.599662682975	0.005956621435290103
2119.6561930940165	0.00707945784384138
2028.096150494003	0.008413951416451957
1911.7      	0.01        
1807.36978758996	0.01188502227437019
1744.6730226753393	0.014125375446227554
1711.5362484578673	0.016788040181225587
1696.272352612597	0.01995262314968883
1689.6725121416664	0.023713737056616554
1688.6785936292226	0.02818382931264455
1690.7773510087438	0.033496543915782793
1695.359692891874	0.03981071705534969
1701.778712334962	0.04731512589614813
1709.5377778504785	0.056234132519034905
1718.550861050271	0.06683439175686148
1728.5658263190107	0.07943282347242821
1739.413787674653	0.09440608762859228
1750.9272809091212	0.11220184543019629
1762.4287202161806	0.1333521432163324
1774.27019366075	0.1584893192461114
1786.271936913434	0.18836490894898023
1798.2862853774448	0.22387211385683378
1810.1725962022726	0.26607250597988086
1821.304715839307	0.3162277660168379
1832.1899077896549	0.3758374042884443
1842.6037113194982	0.4466835921509634
1852.3144129300613	0.5308844442309879
1860.9033468884575	0.630957344480193
1868.1394899173536	0.7498942093324559
1874.5129352066517	0.8912509381337458
1880.002741249095	1.0592537251772898
1884.5865823148893	1.2589254117941662
1887.7662293790431	1.4962356560944328
1890.2345007608235	1.7782794100389228
1892.2487862317985	2.1134890398366473
1893.9108592094342	2.511886431509582
1895.2751702578992	2.9853826189179573
1896.2814360490959	3.548133892335753
1897.0814754166927	4.216965034285823
1897.6950117765937	5.011872336272725
1898.14985785047	5.956621435290109
1898.4668194336884	7.079457843841373
1898.7068472662525	8.413951416451948
1898.9      	10.0        
