# T(K)	P(bar)
2933.2      	1e-08       
2844.4885435775977	1.1885022274370215e-08
2795.725913211694	1.4125375446227554e-08
2771.985145547965	1.6788040181225588e-08
2759.6832525409523	1.9952623149688826e-08
2750.2208306609436	2.3713737056616554e-08
2741.3230445601	2.818382931264461e-08
2732.6669381075676	3.3496543915782795e-08
2724.331162959136	3.981071705534969e-08
2716.3999454766504	4.731512589614813e-08
2709.4246239526	5.6234132519034905e-08
2703.226940317324	6.683439175686162e-08
2697.482522268569	7.94328234724282e-08
2692.1499661830176	9.440608762859226e-08
2687.1699308410934	1.1220184543019653e-07
2682.5989873635035	1.333521432163324e-07
2678.1829856956533	1.584893192461114e-07
2673.8431483885734	1.883649089489802e-07
2669.56720241861	2.2387211385683422e-07
2665.418959714643	2.6607250597988136e-07
2661.552529222463	3.162277660168379e-07
2657.5979175381576	3.7583740428844433e-07
2653.473980396318	4.466835921509635e-07
2649.09678566171	5.308844442309889e-07
2644.447729665881	6.309573444801942e-07
2639.4197106093916	7.498942093324558e-07
2633.9318341880326	8.912509381337459e-07
2627.965184484007	1.0592537251772896e-06
2621.5222845820535	1.2589254117941687e-06
2615.0854380863275	1.4962356560944327e-06
2608.336687346467	1.7782794100389227e-06
2601.2505303033886	2.1134890398366474e-06
2593.789702250941	2.511886431509582e-06
2585.84459673341	2.9853826189179636e-06
2577.6220263651326	3.5481338923357534e-06
2568.7408195829935	4.216965034285822e-06
2559.042242877704	5.011872336272725e-06
2548.392652920461	5.95662143529011e-06
2536.902795528793	7.079457843841388e-06
2524.4612985336166	8.413951416451948e-06
2510.616196542311	1e-05       
2494.5324081776057	1.188502227437019e-05
2475.1982733312025	1.4125375446227555e-05
2452.553910482245	1.678804018122562e-05
2425.7402898410783	1.9952623149688786e-05
2393.3157557626305	2.371373705661655e-05
2354.0453554353567	2.818382931264455e-05
2306.739346311741	3.349654391578279e-05
2250.4508028358455	3.981071705534977e-05
2184.415530664767	4.731512589614803e-05
2116.400621549876	5.623413251903491e-05
2055.6386096026417	6.683439175686148e-05
2016.6169184482312	7.943282347242821e-05
1994.7138573668726	9.440608762859246e-05
1979.03184098085	0.00011220184543019629
1968.180714175375	0.0001333521432163324
1960.9470058072134	0.00015848931924611142
1956.0725674872715	0.00018836490894898024
1952.957936366076	0.00022387211385683424
1950.7427201160044	0.0002660725059798809
1949.087329988688	0.0003162277660168379
1947.6534752078358	0.00037583740428844437
1946.5683038401385	0.0004466835921509635
1946.0656082803832	0.0005308844442309889
1945.7505085547489	0.000630957344480193
1945.4486783977352	0.0007498942093324559
1945.208412003172	0.0008912509381337458
1945.5709138425325	0.0010592537251772895
1946.1694630314407	0.0012589254117941673
1946.849966249634	0.0014962356560944345
1947.4797065731775	0.0017782794100389225
1948.0331186978435	0.0021134890398366475
1948.5735737278953	0.002511886431509582
1949.0301237586893	0.0029853826189179603
1949.3507643639844	0.0035481338923357567
1949.5      	0.004216965034285822
1949.5      	0.0050118723362727255
1949.4387699657252	0.005956621435290103
1949.3202961006523	0.00707945784384138
1949.2      	0.008413951416451957
1949.2      	0.01        
1948.9691809459955	0.01188502227437019
1949.0642524947282	0.014125375446227554
1949.5026937271323	0.016788040181225587
1950.1951027917087	0.01995262314968883
1950.751715843474	0.023713737056616554
1951.5725783464254	0.02818382931264455
1952.8690855356358	0.033496543915782793
1954.6475860010332	0.03981071705534969
1956.835973434837	0.04731512589614813
1959.1872054092357	0.056234132519034905
1962.2778013675947	0.06683439175686148
1966.0409611560265	0.07943282347242821
1970.4500338169823	0.09440608762859228
1975.4757212934878	0.11220184543019629
1981.650990720097	0.1333521432163324
1988.8028666106668	0.1584893192461114
1996.6687512516366	0.18836490894898023
2005.0136411770911	0.22387211385683378
2013.5494482794843	0.26607250597988086
2021.4408403861758	0.3162277660168379
2028.4347616535865	0.3758374042884443
2034.2464655002511	0.4466835921509634
2038.6885109297461	0.5308844442309879
2041.682818181297	0.630957344480193
2043.4273604213963	0.7498942093324559
2044.5029245521603	0.8912509381337458
2045.0725555818497	1.0592537251772898
2045.3      	1.2589254117941662
2045.3      	1.4962356560944328
2045.240189628937	1.7782794100389228
2045.1614188076455	2.1134890398366473
2045.0634283283018	2.511886431509582
2044.9029211461295	2.9853826189179573
2044.7490098386006	3.548133892335753
2044.5395081944357	4.216965034285823
2044.237490186172	5.011872336272725
2043.8376776869125	5.956621435290109
2043.4414757078896	7.079457843841373
2042.8484072899935	8.413951416451948
2042.3      	10.0        
