# T(K)	P(bar)
3009.8      	1e-08       
2980.4090404567582	1.1885022274370215e-08
2965.796411852937	1.4125375446227554e-08
2955.0133907300483	1.6788040181225588e-08
2940.265399570131	1.9952623149688826e-08
2923.0899111156623	2.3713737056616554e-08
2903.9009324273484	2.818382931264461e-08
2883.4142538224824	3.3496543915782795e-08
2862.4840888049794	3.981071705534969e-08
2842.169528144529	4.731512589614813e-08
2824.92716033227	5.6234132519034905e-08
2811.061280178783	6.683439175686162e-08
2799.6992788265798	7.94328234724282e-08
2790.5749492745263	9.440608762859226e-08
2783.132453286832	1.1220184543019653e-07
2777.24445829875	1.333521432163324e-07
2771.3914986995355	1.584893192461114e-07
2765.4459125468807	1.883649089489802e-07
2759.3668189660184	2.2387211385683422e-07
2753.2242288082216	2.6607250597988136e-07
2747.282895002593	3.162277660168379e-07
2741.4754505938336	3.7583740428844433e-07
2735.9126427066108	4.466835921509635e-07
2730.6967856617102	5.308844442309889e-07
2726.047729665881	6.309573444801942e-07
2722.1479669675787	7.498942093324558e-07
2718.5749160285673	8.912509381337459e-07
2715.280962629903	1.0592537251772896e-06
2712.2498239904553	1.2589254117941687e-06
2709.690595865648	1.4962356560944327e-06
2707.3654992391766	1.7782794100389227e-06
2705.3512137682014	2.1134890398366474e-06
2703.6891407905655	2.511886431509582e-06
2702.324829742101	2.9853826189179636e-06
2701.394059031604	3.5481338923357534e-06
2700.5115300462644	4.216965034285822e-06
2699.8049882234063	5.011872336272725e-06
2699.325213224295	5.95662143529011e-06
2698.8497708494674	7.079457843841388e-06
2698.5931527337475	8.413951416451948e-06
2698.925022747953	1e-05       
2700.0108246267587	1.188502227437019e-05
2701.934685195652	1.4125375446227555e-05
2704.5895415296677	1.678804018122562e-05
2707.9152840032075	1.9952623149688786e-05
2712.517492079769	2.371373705661655e-05
2718.2866797119273	2.818382931264455e-05
2724.4906570916496	3.349654391578279e-05
2730.4198196739258	3.981071705534977e-05
2737.484220667617	4.731512589614803e-05
2745.4092759607693	5.623413251903491e-05
2753.693001423167	6.683439175686148e-05
2761.1787952364616	7.943282347242821e-05
2767.4987968406094	9.440608762859246e-05
2774.6309347213432	0.00011220184543019629
2781.4960715095654	0.0001333521432163324
2786.703254879915	0.00015848931924611142
2789.376333958593	0.00018836490894898024
2791.101146463291	0.00022387211385683424
2791.234334614003	0.0002660725059798809
2788.8722460664912	0.0003162277660168379
2782.9978928677224	0.00037583740428844437
2773.6189117611966	0.0004466835921509635
2761.9243312153267	0.0005308844442309889
2747.3022076790676	0.000630957344480193
2729.657414212777	0.0007498942093324559
2709.7953922622273	0.0008912509381337458
2687.957910975647	0.0010592537251772895
2663.8558185452816	0.0012589254117941673
2638.157646421395	0.0014962356560944345
2611.608244447415	0.0017782794100389225
2585.281639088301	0.0021134890398366475
2559.8420347889123	0.002511886431509582
2534.6561784508253	0.0029853826189179603
2509.756905764421	0.0035481338923357567
2484.955830157294	0.004216965034285822
2460.6171571229547	0.0050118723362727255
2436.7023794776333	0.005956621435290103
2412.764711198477	0.00707945784384138
2388.7263926984006	0.008413951416451957
2364.4      	0.01        
2341.3950342842168	0.01188502227437019
2318.4032555166373	0.014125375446227554
2295.279270186372	0.016788040181225587
2271.9056827482345	0.01995262314968883
2248.527934574096	0.023713737056616554
2225.5701502513884	0.02818382931264455
2202.1152626886833	0.033496543915782793
2178.071981914139	0.03981071705534969
2153.2672184660837	0.04731512589614813
2128.030661940868	0.056234132519034905
2102.3688605854986	0.06683439175686148
2075.4166353411065	0.07943282347242821
2046.7602749692865	0.09440608762859228
2015.873070176851	0.11220184543019629
1983.298523951488	0.1333521432163324
1948.2320974905551	0.1584893192461114
1911.0608114827678	0.18836490894898023
1872.2563923005869	0.22387211385683378
1832.6885388165956	0.26607250597988086
1795.8031287822957	0.3162277660168379
1762.0833403052618	0.3758374042884443
1733.1870036538908	0.4466835921509634
1710.6392371259528	0.5308844442309879
1696.2980813422084	0.630957344480193
1688.2605100826463	0.7498942093324559
1684.5732284744172	0.8912509381337458
1684.9367041156459	1.0592537251772898
1688.6911331030572	1.2589254117941662
1691.9483325346296	1.4962356560944328
1695.8101392952694	1.7782794100389228
1700.523521080104	2.1134890398366473
1706.3274393905683	2.511886431509582
1713.4700089972368	2.9853826189179573
1721.2250031506692	3.548133892335753
1729.4242077317924	4.216965034285823
1737.975215904218	5.011872336272725
1746.820948738396	5.956621435290109
1755.8543538601211	7.079457843841373
1766.8665669576196	8.413951416451948
1786.8      	10.0        
