# T(K)	P(bar)
3009.8      	1e-08       
2980.4090404567582	1.1885022274370215e-08
2965.7416610213613	1.4125375446227554e-08
2954.9470233663965	1.6788040181225588e-08
2940.25181345703	1.9952623149688826e-08
2922.9968088523087	2.3713737056616554e-08
2903.8009324273485	2.818382931264461e-08
2883.3142538224824	3.3496543915782795e-08
2862.3840888049795	3.981071705534969e-08
2842.069528144529	4.731512589614813e-08
2824.82716033227	5.6234132519034905e-08
2810.897523003364	6.683439175686162e-08
2799.49927882658	7.94328234724282e-08
2790.3967240135103	9.440608762859226e-08
2783.0302487248164	1.1220184543019653e-07
2777.0647801184705	1.333521432163324e-07
2771.248945383542	1.584893192461114e-07
2765.3459125468808	1.883649089489802e-07
2759.2508036279146	2.2387211385683422e-07
2753.0284395719646	2.6607250597988136e-07
2747.1558444181433	3.162277660168379e-07
2741.3754505938336	3.7583740428844433e-07
2735.7825312324685	4.466835921509635e-07
2730.5070096335453	5.308844442309889e-07
2725.9367511969676	6.309573444801942e-07
2721.981598946509	7.498942093324558e-07
2718.3749160285674	8.912509381337459e-07
2715.1051478238533	1.0592537251772896e-06
2712.145273202287	1.2589254117941687e-06
2709.508492710062	1.4962356560944327e-06
2707.2253096102395	1.7782794100389227e-06
2705.2126325758472	2.1134890398366474e-06
2703.5074266264146	2.511886431509582e-06
2702.223369169036	2.9853826189179636e-06
2701.2940590316034	3.5481338923357534e-06
2700.465027314786	4.216965034285822e-06
2699.7724862606406	5.011872336272725e-06
2699.237677686913	5.95662143529011e-06
2698.8414757078895	7.079457843841388e-06
2698.5931527337475	8.413951416451948e-06
2698.87779799818	1e-05       
2699.9373822192265	1.188502227437019e-05
2701.934685195652	1.4125375446227555e-05
2704.5895415296677	1.678804018122562e-05
2707.9152840032075	1.9952623149688786e-05
2712.517492079769	2.371373705661655e-05
2718.307285941952	2.818382931264455e-05
2724.5906570916495	3.349654391578279e-05
2730.5198196739257	3.981071705534977e-05
2737.640306299572	4.731512589614803e-05
2745.6442691302104	5.623413251903491e-05
2753.9781822590903	6.683439175686148e-05
2761.384339967989	7.943282347242821e-05
2767.7703869250613	9.440608762859246e-05
2774.9807381720784	0.00011220184543019629
2781.9250000821676	0.0001333521432163324
2787.2121741410892	0.00015848931924611142
2789.9638731926693	0.00018836490894898024
2791.8312611096203	0.00022387211385683424
2792.208385502002	0.0002660725059798809
2790.1410244017097	0.0003162277660168379
2784.514508864924	0.00037583740428844437
2775.523088961147	0.0004466835921509635
2764.275918794752	0.0005308844442309889
2750.163817708257	0.000630957344480193
2733.0600574173063	0.0007498942093324559
2713.678568255883	0.0008912509381337458
2692.4513731236993	0.0010592537251772895
2668.7123062224287	0.0012589254117941673
2643.095154858986	0.0014962356560944345
2616.3968577941037	0.0017782794100389225
2589.991193560038	0.0021134890398366475
2564.3390746198147	0.002511886431509582
2539.1022032025635	0.0029853826189179603
2514.4091988563737	0.0035481338923357567
2490.1061427489103	0.004216965034285822
2466.4695468213313	0.0050118723362727255
2443.1309897175565	0.005956621435290103
2419.783526795868	0.00707945784384138
2396.3430868832006	0.008413951416451957
2372.5      	0.01        
2349.6489136535533	0.01188502227437019
2326.8127571797895	0.014125375446227554
2303.8801680954157	0.016788040181225587
2280.7192688613354	0.01995262314968883
2257.4210368374493	0.023713737056616554
2234.4701502513885	0.02818382931264455
2211.0152626886834	0.033496543915782793
2186.916605173322	0.03981071705534969
2161.951486903761	0.04731512589614813
2136.558181580252	0.056234132519034905
2110.8051034100795	0.06683439175686148
2084.02804677092	0.07943282347242821
2055.725599186237	0.09440608762859228
2025.0642841121767	0.11220184543019629
1992.1809744154832	0.1333521432163324
1956.3442391642218	0.1584893192461114
1918.0085276122923	0.18836490894898023
1877.8321775671357	0.22387211385683378
1837.1474895089996	0.26607250597988086
1799.4006852112377	0.3162277660168379
1765.281297855778	0.3758374042884443
1736.3773380763178	0.4466835921509634
1714.09035698513	0.5308844442309879
1700.1431889976425	0.630957344480193
1692.691454251205	0.7498942093324559
1689.7656918159466	0.8912509381337458
1691.1962228006944	1.0592537251772898
1696.4411917729055	1.2589254117941662
1700.5514672460802	1.4962356560944328
1706.4642607982184	1.7782794100389228
1713.233726119548	2.1134890398366473
1720.5834410924554	2.511886431509582
1728.8495609743304	2.9853826189179573
1737.6819342804647	3.548133892335753
1747.0266667596138	4.216965034285823
1756.8277492712334	5.011872336272725
1767.0577735281288	5.956621435290109
1777.5967461701414	7.079457843841373
1790.835039620144	8.413951416451948
1815.5      	10.0        
