# T(K)	P(bar)
2941.3      	1e-08       
2860.05169299041	1.1885022274370215e-08
2814.8399331695196	1.4125375446227554e-08
2792.4878392750975	1.6788040181225588e-08
2780.9191136719646	1.9952623149688826e-08
2772.2518532944778	2.3713737056616554e-08
2764.1956229065245	2.818382931264461e-08
2756.399935152167	3.3496543915782795e-08
2749.018800144857	3.981071705534969e-08
2742.210066412908	4.731512589614813e-08
2736.3319864769105	5.6234132519034905e-08
2731.3470551240266	6.683439175686162e-08
2726.9858857018617	7.94328234724282e-08
2723.1854609626894	9.440608762859226e-08
2719.8206357674467	1.1220184543019653e-07
2717.0315855099343	1.333521432163324e-07
2714.5765994798144	1.584893192461114e-07
2712.357812187091	1.883649089489802e-07
2710.363677899823	2.2387211385683422e-07
2708.688426038606	2.6607250597988136e-07
2707.2869105200866	3.162277660168379e-07
2706.03468162887	3.7583740428844433e-07
2704.818216413724	4.466835921509635e-07
2703.4955205632914	5.308844442309889e-07
2701.9195693782644	6.309573444801942e-07
2700.2399035364638	7.498942093324558e-07
2698.380765132888	8.912509381337459e-07
2696.3953701512523	1.0592537251772896e-06
2694.395331872135	1.2589254117941687e-06
2692.6116274215124	1.4962356560944327e-06
2691.123413320868	1.7782794100389227e-06
2689.898444499392	2.1134890398366474e-06
2688.953713313207	2.511886431509582e-06
2688.3116845845184	2.9853826189179636e-06
2688.0735147579007	3.5481338923357534e-06
2688.1069945370427	4.216965034285822e-06
2688.525019627656	5.011872336272725e-06
2689.39943140188	5.95662143529011e-06
2690.667277734754	7.079457843841388e-06
2692.45477813002	8.413951416451948e-06
2694.900090991811	1e-05       
2698.0482068459855	1.188502227437019e-05
2701.8727353107415	1.4125375446227555e-05
2706.089271841237	1.678804018122562e-05
2710.591150137539	1.9952623149688786e-05
2715.553126328796	2.371373705661655e-05
2720.7775862615517	2.818382931264455e-05
2725.761222970984	3.349654391578279e-05
2729.765332766807	3.981071705534977e-05
2733.4238534379456	4.731512589614803e-05
2736.519781422119	5.623413251903491e-05
2738.7481916407623	6.683439175686148e-05
2739.5445526847298	7.943282347242821e-05
2738.382968564317	9.440608762859246e-05
2736.0572723227865	0.00011220184543019629
2732.088214200025	0.0001333521432163324
2725.9278005320366	0.00015848931924611142
2717.358223485687	0.00018836490894898024
2707.087146726456	0.00022387211385683424
2695.0333754260337	0.0002660725059798809
2681.106482099046	0.0003162277660168379
2665.3021281175347	0.00037583740428844437
2649.024557602076	0.0004466835921509635
2632.7530326500205	0.0005308844442309889
2616.475936292195	0.000630957344480193
2600.124595042219	0.0007498942093324559
2583.3860362209903	0.0008912509381337458
2566.924887539609	0.0010592537251772895
2549.9242370092275	0.0012589254117941673
2532.1822245418193	0.0014962356560944345
2513.4305633656113	0.0017782794100389225
2493.507726877633	0.0021134890398366475
2471.751130545985	0.002511886431509582
2448.600524975156	0.0029853826189179603
2424.3807592184444	0.0035481338923357567
2399.288746701805	0.004216965034285822
2374.013970858453	0.0050118723362727255
2349.0451589977856	0.005956621435290103
2324.2458956010855	0.00707945784384138
2299.6096985136005	0.008413951416451957
2274.8      	0.01        
2251.333396176208	0.01188502227437019
2228.039003021909	0.014125375446227554
2204.611107004632	0.016788040181225587
2180.8377521827283	0.01995262314968883
2157.0624232573286	0.023713737056616554
2134.2106190416475	0.02818382931264455
2111.2513511797197	0.033496543915782793
2088.0319307294512	0.03981071705534969
2064.371728776275	0.04731512589614813
2041.1729066288722	0.056234132519034905
2018.5466619530932	0.06683439175686148
1995.6112902129096	0.07943282347242821
1972.2982267388256	0.09440608762859228
1948.6652068272747	0.11220184543019629
1926.3570460236494	0.1333521432163324
1904.292650858361	0.1584893192461114
1882.2258380004328	0.18836490894898023
1860.1598433739093	0.22387211385683378
1838.54111697439	0.26607250597988086
1818.72494961901	0.3162277660168379
1799.5038848371767	0.3758374042884443
1780.7743609472802	0.4466835921509634
1762.5427419427256	0.5308844442309879
1745.9164569406923	0.630957344480193
1731.1891800599435	0.7498942093324559
1718.0502826132742	0.8912509381337458
1706.455924786511	1.0592537251772898
1695.9082801984596	1.2589254117941662
1684.1203203508649	1.4962356560944328
1673.2657895354491	1.7782794100389228
1663.5946500333628	2.1134890398366473
1655.5285623113189	2.511886431509582
1649.5095429798566	2.9853826189179573
1645.700741045715	3.548133892335753
1642.8950819443573	4.216965034285823
1640.914964670219	5.011872336272725
1639.5878198364423	5.956621435290109
1638.874656274201	7.079457843841373
1638.386305467495	8.413951416451948
1637.4      	10.0        
