# T(K)	P(bar)
2940.8      	1e-08       
2858.859235828397	1.1885022274370215e-08
2813.0566773484875	1.4125375446227554e-08
2790.3542066387495	1.6788040181225588e-08
2778.6783553326604	1.9952623149688826e-08
2769.7725465044173	2.3713737056616554e-08
2761.625388511395	2.818382931264461e-08
2753.7030265986036	3.3496543915782795e-08
2746.135735033631	3.981071705534969e-08
2739.102200631746	4.731512589614813e-08
2733.1457462966023	5.6234132519034905e-08
2728.0195407731885	6.683439175686162e-08
2723.4590388439733	7.94328234724282e-08
2719.4419114847224	9.440608762859226e-08
2715.916226643416	1.1220184543019653e-07
2712.972229149375	1.333521432163324e-07
2710.2468127437896	1.584893192461114e-07
2707.7853362014826	1.883649089489802e-07
2705.5996165474085	2.2387211385683422e-07
2703.6052690935785	2.6607250597988136e-07
2701.9680622734345	3.162277660168379e-07
2700.37957550516	3.7583740428844433e-07
2698.767659043013	4.466835921509635e-07
2697.05462467595	5.308844442309889e-07
2695.1634832539175	6.309573444801942e-07
2693.041695410045	7.498942093324558e-07
2690.712148764781	8.912509381337459e-07
2688.2260737936026	1.0592537251772896e-06
2685.654374778623	1.2589254117941687e-06
2683.1726990212346	1.4962356560944327e-06
2680.9851199813024	1.7782794100389227e-06
2678.9740513834927	2.1134890398366474e-06
2677.1525691188676	2.511886431509582e-06
2675.6277508882304	2.9853826189179636e-06
2674.316583628105	3.5481338923357534e-06
2673.2580327777428	4.216965034285822e-06
2672.4074823351093	5.011872336272725e-06
2671.7626066121475	5.95662143529011e-06
2671.524885424734	7.079457843841388e-06
2671.844745443754	8.413951416451948e-06
2672.5666969972704	1e-05       
2673.7842670342907	1.188502227437019e-05
2675.6070751726343	1.4125375446227555e-05
2677.949595467354	1.678804018122562e-05
2680.714789069304	1.9952623149688786e-05
2683.784748947472	2.371373705661655e-05
2687.0654616610514	2.818382931264455e-05
2690.445917228238	3.349654391578279e-05
2693.4489995751055	3.981071705534977e-05
2696.5434252781743	4.731512589614803e-05
2699.5597540998842	5.623413251903491e-05
2702.3593940863634	6.683439175686148e-05
2704.828113322663	7.943282347242821e-05
2706.789752111299	9.440608762859246e-05
2708.6454793669163	0.00011220184543019629
2710.2628571616383	0.0001333521432163324
2711.44459630587	0.00015848931924611142
2711.8376961703816	0.00018836490894898024
2711.9650573231647	0.00022387211385683424
2711.6518982240013	0.0002660725059798809
2710.512216647813	0.0003162277660168379
2708.020547230223	0.00037583740428844437
2703.834886240534	0.0004466835921509635
2698.34655732728	0.0005308844442309889
2690.864748087719	0.000630957344480193
2680.8970622807205	0.0007498942093324559
2668.2430321670645	0.0008912509381337458
2653.4827256782455	0.0010592537251772895
2636.8155867730316	0.0012589254117941673
2618.194817355326	0.0014962356560944345
2597.5775771129684	0.0017782794100389225
2575.203915501469	0.0021134890398366475
2551.9333695313962	0.002511886431509582
2527.648227954301	0.0029853826189179603
2502.6030839444993	0.0035481338923357567
2477.039059293422	0.004216965034285822
2452.4663605568294	0.0050118723362727255
2428.6248395461826	0.005956621435290103
2405.163230695216	0.00707945784384138
2382.1153733144006	0.008413951416451957
2359.4      	0.01        
2338.4724057702574	0.01188502227437019
2317.7457804639193	0.014125375446227554
2297.089147185857	0.016788040181225587
2276.4083689329805	0.01995262314968883
2255.972718318172	0.023713737056616554
2236.29022924196	0.02818382931264455
2216.3926136974274	0.033496543915782793
2196.239465545797	0.03981071705534969
2175.7627626792414	0.04731512589614813
2155.463793300263	0.056234132519034905
2135.386891566499	0.06683439175686148
2115.0488879356435	0.07943282347242821
2094.373243647317	0.09440608762859228
2073.2113336668153	0.11220184543019629
2052.524181087675	0.1333521432163324
2031.5231876574999	0.1584893192461114
2010.2519799356705	0.18836490894898023
1988.7598433739092	0.22387211385683378
1967.14111697439	0.26607250597988086
1946.2307083857488	0.3162277660168379
1925.3283542186266	0.3758374042884443
1904.6215740937234	0.4466835921509634
1884.2644549848148	0.5308844442309879
1864.722660290482	0.630957344480193
1846.2044109853828	0.7498942093324559
1828.7536577215742	0.8912509381337458
1812.5289983434661	1.0592537251772898
1797.1078108396732	1.2589254117941662
1778.4952426592602	1.4962356560944328
1759.7258902027845	1.7782794100389228
1741.4735564896619	2.1134890398366473
1724.3525478452782	2.511886431509582
1708.783351174562	2.9853826189179573
1695.212865796854	3.548133892335753
1681.9659561569222	4.216965034285823
1668.837176143673	5.011872336272725
1655.5810413550234	5.956621435290109
1642.1101740682404	7.079457843841373
1623.6695750785477	8.413951416451948
1589.4      	10.0        
