# T(K)	P(bar)
983.7       	1e-08       
988.9318985574357	1.1885022274370215e-08
994.4968107050527	1.4125375446227554e-08
1000.3224477261031	1.6788040181225588e-08
1006.3461307087957	1.9952623149688826e-08
1012.468874278213	2.3713737056616554e-08
1018.4080484249769	2.818382931264461e-08
1024.479433588979	3.3496543915782795e-08
1030.6596928918739	3.981071705534969e-08
1036.913530930576	4.731512589614813e-08
1043.0267340640132	5.6234132519034905e-08
1049.2643312089328	6.683439175686162e-08
1055.7094297349097	7.94328234724282e-08
1062.394402291572	9.440608762859226e-08
1069.4050242674296	1.1220184543019653e-07
1076.6100707660034	1.333521432163324e-07
1084.0148816645944	1.584893192461114e-07
1091.760037273224	1.883649089489802e-07
1099.8495798246765	2.2387211385683422e-07
1108.066291334457	2.6607250597988136e-07
1116.159688632828	3.162277660168379e-07
1124.4592710473946	3.7583740428844433e-07
1132.921927733222	4.466835921509635e-07
1141.4939649863904	5.308844442309889e-07
1149.925303826284	6.309573444801942e-07
1158.2013782544707	7.498942093324558e-07
1166.5903252312396	8.912509381337459e-07
1175.1120009465908	1.0592537251772896e-06
1183.8005866984831	1.2589254117941687e-06
1192.3313471145057	1.4962356560944327e-06
1200.8193304458532	1.7782794100389227e-06
1209.366768774283	2.1134890398366474e-06
1217.9748702717009	2.511886431509582e-06
1226.6422581090067	2.9853826189179636e-06
1235.0289637962667	3.5481338923357534e-06
1243.5846995373568	4.216965034285822e-06
1252.3402198297492	5.011872336272725e-06
1261.3334132010136	5.95662143529011e-06
1270.4460587185436	7.079457843841388e-06
1279.6049415613475	8.413951416451948e-06
1289.0614194722475	1e-05       
1298.766583873536	1.188502227437019e-05
1308.6766182308181	1.4125375446227555e-05
1318.5932874784648	1.678804018122562e-05
1328.5704808091948	1.9952623149688786e-05
1338.906252657592	2.371373705661655e-05
1349.6230535134293	2.818382931264455e-05
1360.6660084405532	3.349654391578279e-05
1371.52330615615	3.981071705534977e-05
1382.7324166333804	4.731512589614803e-05
1394.2789890773006	5.623413251903491e-05
1406.1376937755126	6.683439175686148e-05
1418.1627455394225	7.943282347242821e-05
1430.168053174507	9.440608762859246e-05
1442.568552117679	0.00011220184543019629
1455.3153573341901	0.0001333521432163324
1468.3984358772284	0.00015848931924611142
1481.6065913248124	0.00018836490894898024
1494.7597449379743	0.00022387211385683424
1508.1406754619654	0.0002660725059798809
1521.880847889642	0.0003162277660168379
1536.2147918964574	0.00037583740428844437
1550.554556398171	0.0004466835921509635
1565.4094004715123	0.0005308844442309889
1580.9119451238664	0.000630957344480193
1597.0925121585358	0.0007498942093324559
1613.9111597779527	0.0008912509381337458
1630.6718435344171	0.0010592537251772895
1648.2452260222133	0.0012589254117941673
1666.7614790514274	0.0014962356560944345
1686.292209941011	0.0017782794100389225
1706.3731641788934	0.0021134890398366475
1727.0664152188256	0.002511886431509582
1749.3312770109408	0.0029853826189179603
1773.322298237493	0.0035481338923357567
1799.1230590573427	0.004216965034285822
1825.9580062490497	0.0050118723362727255
1854.0714225788556	0.005956621435290103
1883.7625564734801	0.00707945784384138
1915.035204566399	0.008413951416451957
1947.9      	0.01        
1980.9071247226454	0.01188502227437019
2015.054618388196	0.014125375446227554
2050.201053720271	0.016788040181225587
2086.072992556256	0.01995262314968883
2121.6167117189766	0.023713737056616554
2156.024540227788	0.02818382931264455
2190.5714275072023	0.033496543915782793
2225.105999275715	0.03981071705534969
2259.4800307442333	0.04731512589614813
2292.162155188379	0.056234132519034905
2323.721656044664	0.06683439175686148
2354.890091525479	0.07943282347242821
2385.456653423927	0.09440608762859228
2415.1709771751785	0.11220184543019629
2442.2649717844256	0.1333521432163324
2468.5307470285557	0.1584893192461114
2494.1149677333224	0.18836490894898023
2519.068662783511	0.22387211385683378
2543.3199278220864	0.26607250597988086
2566.19302700302	0.3162277660168379
2588.9961551751812	0.3758374042884443
2611.751658656402	0.4466835921509634
2634.421816226577	0.5308844442309879
2656.1699425799475	0.630957344480193
2676.9866296467117	0.7498942093324559
2697.4609650392276	0.8912509381337458
2717.525372517729	1.0592537251772898
2737.1557828549826	1.2589254117941662
2755.1479320960484	1.4962356560944328
2772.3984712627694	1.7782794100389228
2789.186306817375	2.1134890398366473
2805.465737990571	2.511886431509582
2821.115188252373	2.9853826189179573
2835.064609606645	3.548133892335753
2848.2735520375136	4.216965034285823
2860.580282638249	5.011872336272725
2871.858057827189	5.956621435290109
2881.7631073027646	7.079457843841373
2890.522297940092	8.413951416451948
2900.1      	10.0        
