# T(K)	P(bar)
952.4       	1e-08       
957.1702604494267	1.1885022274370215e-08
962.3230565471723	1.4125375446227554e-08
967.821549817059	1.6788040181225588e-08
973.6325445956945	1.9952623149688826e-08
979.6757720148596	2.3713737056616554e-08
985.6782828201065	2.818382931264461e-08
991.8278878657608	3.3496543915782795e-08
998.1150696326912	3.981071705534969e-08
1004.5292624928985	4.731512589614813e-08
1010.7992144246291	5.6234132519034905e-08
1017.0643312089329	6.683439175686162e-08
1023.4671474489469	7.94328234724282e-08
1030.0726275525885	9.440608762859226e-08
1036.996206019368	1.1220184543019653e-07
1043.891358044885	1.333521432163324e-07
1051.099988296582	1.584893192461114e-07
1058.578847309203	1.883649089489802e-07
1066.3175491484694	2.2387211385683422e-07
1074.3747128619432	2.6607250597988136e-07
1082.2408403861757	3.162277660168379e-07
1090.3572285979105	3.7583740428844433e-07
1098.721927733222	4.466835921509635e-07
1107.2939649863904	5.308844442309889e-07
1115.725303826284	6.309573444801942e-07
1124.1341142966105	7.498942093324558e-07
1132.6798640206086	8.912509381337459e-07
1141.3603713344905	1.0592537251772896e-06
1150.2051374866512	1.2589254117941687e-06
1158.813450270092	1.4962356560944327e-06
1167.438951187979	1.7782794100389227e-06
1176.2210935437008	2.1134890398366474e-06
1185.166299450946	2.511886431509582e-06
1194.234955243683	2.9853826189179636e-06
1202.8554490383656	3.5481338923357534e-06
1211.645191342921	4.216965034285822e-06
1220.637725718046	5.011872336272725e-06
1229.8708065888661	5.95662143529011e-06
1239.2211732938097	7.079457843841388e-06
1248.5428397388491	8.413951416451948e-06
1258.203093721565	1e-05       
1268.2259294283426	1.188502227437019e-05
1278.6111307595907	1.4125375446227555e-05
1288.9182200563573	1.678804018122562e-05
1299.3458520096224	1.9952623149688786e-05
1309.9884355330785	2.371373705661655e-05
1320.8848722035043	2.818382931264455e-05
1332.1683631702065	3.349654391578279e-05
1343.1796651087197	3.981071705534977e-05
1354.5445878972891	4.731512589614803e-05
1366.283968585624	5.623413251903491e-05
1378.3969704318174	6.683439175686148e-05
1390.7405666133145	7.943282347242821e-05
1402.982823427863	9.440608762859246e-05
1415.5681590191502	0.00011220184543019629
1428.5021430519973	0.0001333521432163324
1441.816274399576	0.00015848931924611142
1455.1816697929648	0.00018836490894898024
1468.6199742306326	0.00022387211385683424
1482.4017517939644	0.0002660725059798809
1496.5037740013815	0.0003162277660168379
1510.9114686970172	0.00037583740428844437
1525.1737209581809	0.0004466835921509635
1539.7750087518953	0.0005308844442309889
1554.999826539928	0.000630957344480193
1570.9069761547612	0.0007498942093324559
1587.3251797832397	0.0008912509381337458
1603.6267469233783	0.0010592537251772895
1620.5236004317235	0.0012589254117941673
1638.1865296769765	0.0014962356560944345
1656.744183447967	0.0017782794100389225
1675.7973723114696	0.0021134890398366475
1695.081000814538	0.002511886431509582
1715.5346334657554	0.0029853826189179603
1737.38621495972	0.0035481338923357567
1760.8609407065783	0.004216965034285822
1785.4336394431705	0.0050118723362727255
1811.356981619161	0.005956621435290103
1839.006109681306	0.00707945784384138
1868.3684278271992	0.008413951416451957
1899.3      	0.01        
1930.2297532366047	0.01188502227437019
1962.8238542514032	0.014125375446227554
1996.9319926294863	0.016788040181225587
2032.2865786693571	0.01995262314968883
2067.90981398233	0.023713737056616554
2102.5352434131764	0.02818382931264455
2137.5590617214566	0.033496543915782793
2172.81057135021	0.03981071705534969
2208.105883242813	0.04731512589614813
2242.041998073305	0.056234132519034905
2274.969285202205	0.06683439175686148
2307.5934549587714	0.07943282347242821
2339.8010218985164	0.09440608762859228
2371.528086595562	0.11220184543019629
2400.6290437684574	0.1333521432163324
2428.863785208417	0.1584893192461114
2456.312203575015	0.18836490894898023
2482.9409235312737	0.22387211385683378
2508.5483448384534	0.26607250597988086
2532.4413694051796	0.3162277660168379
2556.0553461978598	0.3758374042884443
2579.5226619236823	0.4466835921509634
2602.9342799167666	0.5308844442309879
2625.5491794219015	0.630957344480193
2647.21667787848	0.7498942093324559
2668.6429671701258	0.8912509381337458
2689.7639652330276	1.0592537251772898
2710.519493889335	1.2589254117941662
2729.5973762742583	1.4962356560944328
2747.8760060865866	1.7782794100389228
2765.6106999332746	2.1134890398366473
2782.78516802076	2.511886431509582
2799.397661375596	2.9853826189179573
2814.49703581714	3.548133892335753
2829.143497407942	4.216965034285823
2843.2578356329204	5.011872336272725
2856.7943140188017	5.956621435290109
2869.472777347539	7.079457843841373
2881.9697523776326	8.413951416451948
2896.1      	10.0        
