# T(K)	P(bar)
829.7       	1e-08       
830.0846984233409	1.1885022274370215e-08
830.5285049894563	1.4125375446227554e-08
831.0017958180882	1.6788040181225588e-08
831.5086889048099	1.9952623149688826e-08
832.1448181068274	2.3713737056616554e-08
832.7618751610365	2.818382931264461e-08
833.4845427678179	3.3496543915782795e-08
834.2768837040863	3.981071705534969e-08
835.0943893739347	4.731512589614813e-08
836.0348821636944	5.6234132519034905e-08
837.028843280446	6.683439175686162e-08
838.1342342894415	7.94328234724282e-08
839.370170562721	9.440608762859226e-08
840.7396821162768	1.1220184543019653e-07
842.1342072450329	1.333521432163324e-07
843.70638036413	1.584893192461114e-07
845.4697118273008	1.883649089489802e-07
847.4324141287988	2.2387211385683422e-07
849.5863093789354	2.6607250597988136e-07
851.961431882073	3.162277660168379e-07
854.4837004164862	3.7583740428844433e-07
857.2141245432637	4.466835921509635e-07
860.1987349015815	5.308844442309889e-07
863.271839712384	6.309573444801942e-07
866.4874568849325	7.498942093324558e-07
869.9146227608016	8.912509381337459e-07
873.512518921696	1.0592537251772896e-06
877.2275394084014	1.2589254117941687e-06
881.1051577793208	1.4962356560944327e-06
885.1101392952695	1.7782794100389227e-06
889.3605467718504	2.1134890398366474e-06
893.8605784792467	2.511886431509582e-06
898.5152867622444	2.9853826189179636e-06
903.280695003381	3.5481338923357534e-06
908.2773224538926	4.216965034285822e-06
913.4451295425307	5.011872336272725e-06
918.7475834579907	5.95662143529011e-06
924.1359303727039	7.079457843841388e-06
929.5264362125573	8.413951416451948e-06
935.1001819836215	1e-05       
940.8918194350829	1.188502227437019e-05
946.9452979546033	1.4125375446227555e-05
953.1139347306986	1.678804018122562e-05
959.4300730725113	1.9952623149688786e-05
966.0749550836605	2.371373705661655e-05
973.0751669322779	2.818382931264455e-05
980.4106722937022	3.349654391578279e-05
987.6488707707668	3.981071705534977e-05
995.1403062995718	4.731512589614803e-05
1002.8293306052395	5.623413251903491e-05
1010.667097243548	6.683439175686148e-05
1018.5510715788267	7.943282347242821e-05
1026.4021886141006	9.440608762859246e-05
1034.4795588764914	0.00011220184543019629
1042.7375001232513	0.0001333521432163324
1051.1454416844417	0.00015848931924611142
1059.4791588120838	0.00018836490894898024
1067.7611335786073	0.00022387211385683424
1076.242886697978	0.0002660725059798809
1084.9218722913517	0.0003162277660168379
1093.7655519384343	0.00037583740428844437
1102.2918983989125	0.0004466835921509635
1110.7871743595588	0.0005308844442309889
1119.48576046703	0.000630957344480193
1128.4160064845526	0.0007498942093324559
1137.3859518815748	0.0008912509381337458
1146.0826528412347	0.0010592537251772895
1154.9465317315821	0.0012589254117941673
1164.1182479633053	0.0014962356560944345
1173.7233316638833	0.0017782794100389225
1183.60569103292	0.0021134890398366475
1193.5949406609159	0.002511886431509582
1204.1514157398292	0.0029853826189179603
1215.2550342068716	0.0035481338923357567
1226.8385431936088	0.004216965034285822
1238.5398283062716	0.0050118723362727255
1250.4906553125957	0.005956621435290103
1262.9161638975008	0.00707945784384138
1275.7896410511996	0.008413951416451957
1289.0      	0.01        
1301.4642289162437	0.01188502227437019
1314.2886380416267	0.014125375446227554
1327.483915542819	0.016788040181225587
1340.9960531141103	0.01995262314968883
1354.4342825067272	0.023713737056616554
1367.6100815671562	0.02818382931264455
1381.2279527135936	0.033496543915782793
1395.283906673555	0.03981071705534969
1409.7709010771503	0.04731512589614813
1424.4269137175706	0.056234132519034905
1439.9427066100416	0.06683439175686148
1456.5598206258458	0.07943282347242821
1474.2299647052084	0.09440608762859228
1492.838146461307	0.11220184543019629
1511.7499090802971	0.1333521432163324
1531.5889540161668	0.1584893192461114
1552.0943541146999	0.18836490894898023
1572.8999265545358	0.22387211385683378
1593.322044481757	0.26607250597988086
1612.783252718787	0.3162277660168379
1631.9981576123073	0.3758374042884443
1651.1267537941426	0.4466835921509634
1670.4355450151852	0.5308844442309879
1689.977339709518	0.630957344480193
1710.2875255835024	0.7498942093324559
1732.2278938531845	0.8912509381337458
1756.0634472579225	1.0592537251772898
1781.9973266469779	1.2589254117941662
1809.218207610832	1.4962356560944328
1838.0485098907036	1.7782794100389228
1868.516733364725	2.1134890398366473
1900.4337643698218	2.511886431509582
1933.4982438973216	2.9853826189179573
1966.7138748622676	3.548133892335753
2001.855246251334	4.216965034285823
2039.678495122168	5.011872336272725
2081.291426332183	5.956621435290109
2128.280981044314	7.079457843841373
2196.35736529575	8.413951416451948
2295.7      	10.0        
