# T(K)	P(bar)
1179.5      	1e-08       
1200.504533914411	1.1885022274370215e-08
1211.891827336574	1.4125375446227554e-08
1218.9924067259315	1.6788040181225588e-08
1225.8955779529094	1.9952623149688826e-08
1232.8929991751006	2.3713737056616554e-08
1240.0317987470498	2.818382931264461e-08
1247.5485191246146	3.3496543915782795e-08
1255.4242137816811	3.981071705534969e-08
1263.6259070219292	4.731512589614813e-08
1271.8552189323257	5.6234132519034905e-08
1280.1220177698249	6.683439175686162e-08
1288.6510514559043	7.94328234724282e-08
1297.4169960271781	9.440608762859226e-08
1306.349115507737	1.1220184543019653e-07
1315.1036343715955	1.333521432163324e-07
1323.9489219767058	1.584893192461114e-07
1332.8948931868745	1.883649089489802e-07
1341.8937178676094	2.2387211385683422e-07
1350.8283944607688	2.6607250597988136e-07
1359.3973851261326	3.162277660168379e-07
1368.0633559463627	3.7583740428844433e-07
1376.842373629791	4.466835921509635e-07
1385.755308817403	5.308844442309889e-07
1394.6594330128048	6.309573444801942e-07
1403.6650584651688	7.498942093324558e-07
1412.9723273621378	8.912509381337459e-07
1422.5989640497892	1.0592537251772896e-06
1432.5825008855077	1.2589254117941687e-06
1442.509203915061	1.4962356560944327e-06
1452.7547793513622	1.7782794100389227e-06
1463.3856233525623	2.1134890398366474e-06
1474.3600170188713	2.511886431509582e-06
1485.5955197709347	2.9853826189179636e-06
1496.671291620756	3.5481338923357534e-06
1508.1175957411708	4.216965034285822e-06
1520.0378042286707	5.011872336272725e-06
1532.506778481419	5.95662143529011e-06
1545.2644822059606	7.079457843841388e-06
1558.321345087639	8.413951416451948e-06
1572.0060054595087	1e-05       
1586.3662697914735	1.188502227437019e-05
1601.47359864514	1.4125375446227555e-05
1617.0123166001142	1.678804018122562e-05
1633.0754301482302	1.9952623149688786e-05
1649.857933428023	2.371373705661655e-05
1667.3776142156821	2.818382931264455e-05
1685.6743260046023	3.349654391578279e-05
1703.6158179743475	3.981071705534977e-05
1722.1605516690436	4.731512589614803e-05
1741.3783060214225	5.623413251903491e-05
1761.2492485112891	6.683439175686148e-05
1781.3971829236684	7.943282347242821e-05
1801.5566021264156	9.440608762859246e-05
1822.4469316985837	0.00011220184543019629
1843.8975003204534	0.0001333521432163324
1865.7706353451917	0.00015848931924611142
1887.5483678391251	0.00018836490894898024
1909.0208785165817	0.00022387211385683424
1930.8835621599435	0.0002660725059798809
1953.2110157340353	0.0003162277660168379
1976.0537582393692	0.00037583740428844437
1998.2997712771623	0.0004466835921509635
2020.5590079526037	0.0005308844442309889
2042.901774028888	0.000630957344480193
2065.1531586053416	0.0007498942093324559
2086.937311712396	0.0008912509381337458
2106.98751981169	0.0010592537251772895
2126.5841520850945	0.0012589254117941673
2145.7115128017936	0.0014962356560944345
2164.293677075124	0.0017782794100389225
2181.607570689676	0.0021134890398366475
2197.5012914986683	0.002511886431509582
2212.8907275819374	0.0029853826189179603
2227.7434105765974	0.0035481338923357567
2242.0503489527564	0.004216965034285822
2255.3118054137744	0.0050118723362727255
2268.202955655344	0.005956621435290103
2281.1357197465227	0.00707945784384138
2294.2479881435997	0.008413951416451957
2307.7      	0.01        
2321.087505132262	0.01188502227437019
2335.2289038415715	0.014125375446227554
2350.326527269608	0.016788040181225587
2366.561772656071	0.01995262314968883
2383.8962934110446	0.023713737056616554
2402.3967236213557	0.02818382931264455
2422.4888376239537	0.033496543915782793
2444.3680692705484	0.03981071705534969
2468.2406473150777	0.04731512589614813
2493.55557823944	0.056234132519034905
2520.50628292288	0.06683439175686148
2549.409550951814	0.07943282347242821
2580.1098955934344	0.09440608762859228
2612.3071611776318	0.11220184543019629
2644.186989592501	0.1333521432163324
2675.91521851375	0.1584893192461114
2706.861723287183	0.18836490894898023
2736.2651382647246	0.22387211385683378
2762.9893941460496	0.26607250597988086
2784.825836354208	0.3162277660168379
2803.777733117467	0.3758374042884443
2819.7286161817574	0.4466835921509634
2832.626876620251	0.5308844442309879
2842.082583730412	0.630957344480193
2848.7094416855857	0.7498942093324559
2853.5489309448553	0.8912509381337458
2856.828815042698	1.0592537251772898
2858.8455078816805	1.2589254117941662
2859.621031555864	1.4962356560944328
2859.859810371063	1.7782794100389228
2859.822837615291	2.1134890398366473
2859.6268566566036	2.511886431509582
2859.305842292259	2.9853826189179573
2858.8470295158018	3.548133892335753
2858.32551912035	4.216965034285823
2857.7074823351095	5.011872336272725
2856.95042644859	5.956621435290109
2855.9995416989345	7.079457843841373
2854.9347127574883	8.413951416451948
2853.8      	10.0        
