# T(K)	P(bar)
998.6       	1e-08       
1004.6012954041174	1.1885022274370215e-08
1010.8895681892373	1.4125375446227554e-08
1017.4251414532355	1.6788040181225588e-08
1024.1548196136057	1.9952623149688826e-08
1030.9136923850403	2.3713737056616554e-08
1037.399689190884	2.818382931264461e-08
1043.921704972888	3.3496543915782795e-08
1050.498134743917	3.981071705534969e-08
1057.1685913987046	4.731512589614813e-08
1063.8304153261683	5.6234132519034905e-08
1070.5468742614464	6.683439175686162e-08
1077.505405736649	7.94328234724282e-08
1084.7686002034407	9.440608762859226e-08
1092.4160470775064	1.1220184543019653e-07
1100.0084616674014	1.333521432163324e-07
1107.9170084526377	1.584893192461114e-07
1116.141227237245	1.883649089489802e-07
1124.6456718532986	2.2387211385683422e-07
1133.3410267519982	2.6607250597988136e-07
1141.8973851261326	3.162277660168379e-07
1150.5633559463627	3.7583740428844433e-07
1159.4025965780754	4.466835921509635e-07
1168.4757567610739	5.308844442309889e-07
1177.5374760749783	6.309573444801942e-07
1186.498690444099	7.498942093324558e-07
1195.682788572769	8.912509381337459e-07
1205.1022232739897	1.0592537251772896e-06
1214.7551961564996	1.2589254117941687e-06
1224.2165849815428	1.4962356560944327e-06
1233.7566756407336	1.7782794100389227e-06
1243.522649044309	2.1134890398366474e-06
1253.5040153169844	2.511886431509582e-06
1263.6159677938413	2.9853826189179636e-06
1273.5388654102605	3.5481338923357534e-06
1283.8151367133496	4.216965034285822e-06
1294.4852708616552	5.011872336272725e-06
1305.5699536916864	5.95662143529011e-06
1316.8220898959405	7.079457843841388e-06
1328.2044651351212	8.413951416451948e-06
1340.0253867151955	1e-05       
1352.3226572023757	1.188502227437019e-05
1365.1389134494882	1.4125375446227555e-05
1378.0227750704466	1.678804018122562e-05
1391.0729554787124	1.9952623149688786e-05
1404.549910167321	2.371373705661655e-05
1418.5297276345307	2.818382931264455e-05
1433.1225219522312	3.349654391578279e-05
1447.6759210178184	3.981071705534977e-05
1462.7927838630521	4.731512589614803e-05
1478.5386065660089	5.623413251903491e-05
1494.926843620087	6.683439175686148e-05
1511.7300616478026	7.943282347242821e-05
1528.578228494981	9.440608762859246e-05
1546.1551867676928	0.00011220184543019629
1564.513928851972	0.0001333521432163324
1583.7298152934943	0.00015848931924611142
1603.384808519066	0.00018836490894898024
1623.6100759922779	0.00022387211385683424
1644.7659985499445	0.0002660725059798809
1666.879794069254	0.0003162277660168379
1689.9869902337723	0.00037583740428844437
1713.0081256770636	0.0004466835921509635
1736.9239562002087	0.0005308844442309889
1761.9835527879625	0.000630957344480193
1788.3190914612067	0.0007498942093324559
1816.0298156341507	0.0008912509381337458
1843.8541621993534	0.0010592537251772895
1872.9174473205092	0.0012589254117941673
1903.21710045086	0.0014962356560944345
1934.7115945909818	0.0017782794100389225
1966.7304389466608	0.0021134890398366475
1998.7438101149312	0.002511886431509582
2031.668469985129	0.0029853826189179603
2065.058987708741	0.0035481338923357567
2098.341705470914	0.004216965034285822
2129.623141005433	0.0050118723362727255
2159.467413024428	0.005956621435290103
2188.148182385871	0.00707945784384138
2215.326444701999	0.008413951416451957
2240.7      	0.01        
2262.0892323377516	0.01188502227437019
2281.9687045677115	0.014125375446227554
2300.499179996569	0.016788040181225587
2317.8579809595526	0.01995262314968883
2333.9997594607435	0.023713737056616554
2348.8147694697477	0.02818382931264455
2363.3186783742844	0.033496543915782793
2377.5731531919205	0.03981071705534969
2391.6765117032155	0.04731512589614813
2405.392031553876	0.056234132519034905
2418.8937485228926	0.06683439175686148
2432.6416823294467	0.07943282347242821
2446.7630024950126	0.09440608762859228
2461.417338072034	0.11220184543019629
2476.0836029602306	0.1333521432163324
2491.4069839116946	0.1584893192461114
2507.5099784888816	0.18836490894898023
2524.439389720908	0.22387211385683378
2542.069421212767	0.26607250597988086
2559.8513149922214	0.3162277660168379
2578.2430514885973	0.3758374042884443
2597.1267537941426	0.4466835921509634
2616.3026333813245	0.5308844442309879
2634.82005980539	0.630957344480193
2652.06733265643	0.7498942093324559
2668.319570752843	0.8912509381337458
2683.359853359385	1.0592537251772898
2697.0098056145157	1.2589254117941662
2707.4018228485797	1.4962356560944328
2715.3623645088473	1.7782794100389228
2721.2991279642047	2.1134890398366473
2725.3668609113215	2.511886431509582
2727.8547222349926	2.9853826189179573
2729.107921291195	3.548133892335753
2729.8209836111287	4.216965034285823
2730.1325019627657	5.011872336272725
2730.1875355373822	5.956621435290109
2730.108295141578	7.079457843841373
2729.8931527337477	8.413951416451948
2729.7      	10.0        
