# T(K)	P(bar)
2264.2      	1e-08       
2257.3523680645326	1.1885022274370215e-08
2252.562458421197	1.4125375446227554e-08
2249.1564903641665	1.6788040181225588e-08
2246.57393328557	1.9952623149688826e-08
2244.665545679518	2.3713737056616554e-08
2243.0953120974086	2.818382931264461e-08
2241.6278230179278	3.3496543915782795e-08
2240.229297703053	3.981071705534969e-08
2238.858415939098	4.731512589614813e-08
2237.4476767544584	5.6234132519034905e-08
2236.0523708424594	6.683439175686162e-08
2234.554354280745	7.94328234724282e-08
2232.920955742361	9.440608762859226e-08
2231.149295073646	1.1220184543019653e-07
2229.367401853569	1.333521432163324e-07
2227.4638328998453	1.584893192461114e-07
2225.457812187091	1.883649089489802e-07
2223.335555194994	2.2387211385683422e-07
2221.022112148551	2.6607250597988136e-07
2218.638568117927	3.162277660168379e-07
2216.01425713403	3.7583740428844433e-07
2213.125652508452	4.466835921509635e-07
2209.9501452392415	5.308844442309889e-07
2206.483052632182	6.309573444801942e-07
2202.8143349886486	7.498942093324558e-07
2198.7376832923533	8.912509381337459e-07
2194.248888363005	1.0592537251772896e-06
2189.413300345414	1.2589254117941687e-06
2184.5275011980557	1.4962356560944327e-06
2179.2730843966615	1.7782794100389227e-06
2173.6835729581235	2.1134890398366474e-06
2167.7371331320733	2.511886431509582e-06
2161.31684584518	2.9853826189179636e-06
2154.6319279791264	3.5481338923357534e-06
2147.471256758986	4.216965034285822e-06
2139.7522978351412	5.011872336272725e-06
2131.379051261604	5.95662143529011e-06
2122.3456461398787	7.079457843841388e-06
2112.8503129948986	8.413951416451948e-06
2102.530209281165	1e-05       
2091.1835731674955	1.188502227437019e-05
2078.571353975704	1.4125375446227555e-05
2064.6724002270334	1.678804018122562e-05
2049.0496935852457	1.9952623149688786e-05
2031.2325977529101	2.371373705661655e-05
2010.6181309924907	2.818382931264455e-05
1986.332586163832	3.349654391578279e-05
1955.7627479149528	3.981071705534977e-05
1914.4020765706152	4.731512589614803e-05
1856.7462567918426	5.623413251903491e-05
1774.6155939478072	6.683439175686148e-05
1653.2501708471518	7.943282347242821e-05
1430.3876970663564	9.440608762859246e-05
1333.2973683727457	0.00011220184543019629
1320.013928523302	0.0001333521432163324
1317.8402986774402	0.00015848931924611142
1324.3657564283299	0.00018836490894898024
1332.9466494870883	0.00022387211385683424
1342.6566538599739	0.0002660725059798809
1353.186729531799	0.0003162277660168379
1364.3885103177258	0.00037583740428844437
1375.7828096785465	0.0004466835921509635
1387.7412770650565	0.0005308844442309889
1401.0766064815493	0.000630957344480193
1415.9530113479666	0.0007498942093324559
1431.650415792756	0.0008912509381337458
1446.8881881642872	0.0010592537251772895
1462.901974841234	0.0012589254117941673
1479.9615465521595	0.0014962356560944345
1498.6541029671655	0.0017782794100389225
1520.553411328951	0.0021134890398366475
1542.8194830128127	0.002511886431509582
1565.7312770109406	0.0029853826189179603
1590.813732063156	0.0035481338923357567
1620.1696569107012	0.004216965034285822
1651.8411352823089	0.0050118723362727255
1683.849234189772	0.005956621435290103
1720.9019774781548	0.00707945784384138
1761.118675490399	0.008413951416451957
1796.4      	0.01        
1833.0232899020493	0.01188502227437019
1860.2062461465148	0.014125375446227554
1881.9408938143142	0.016788040181225587
1902.4214894779682	0.01995262314968883
1925.958269952611	0.023713737056616554
1944.1539108798008	0.02818382931264455
1959.4794984368118	0.033496543915782793
1972.5701904500702	0.03981071705534969
1984.3405382683786	0.04731512589614813
1995.7048261446403	0.056234132519034905
2006.4984902078115	0.06683439175686148
2016.5315920295693	0.07943282347242821
2025.8169960271782	0.09440608762859228
2034.7438132947145	0.11220184543019629
2043.3119996241346	0.1333521432163324
2051.8480464641943	0.1584893192461114
2060.55865519407	0.18836490894898023
2069.605825234335	0.22387211385683378
2079.098919114567	0.26607250597988086
2088.062132203886	0.3162277660168379
2096.4041649236847	0.3758374042884443
2104.049809724519	0.4466835921509634
2110.874782141138	0.5308844442309879
2116.0754210517266	0.630957344480193
2119.454720842793	0.7498942093324559
2121.7849266830585	0.8912509381337458
2123.241851939499	1.0592537251772898
2124.009101576336	1.2589254117941662
2124.1642063111726	1.4962356560944328
2124.2      	1.7782794100389228
2124.277162384709	2.1134890398366473
2124.4914291792456	2.511886431509582
2124.8926971346764	2.9853826189179573
2125.352970484198	3.548133892335753
2125.8209836111287	4.216965034285823
2126.1975058882967	5.011872336272725
2126.4249289252352	5.956621435290109
2126.583409716844	7.079457843841373
2126.6689490887507	8.413951416451948
2126.7      	10.0        
