# T(K)	P(bar)
1765.0      	1e-08       
1769.2316826567494	1.1885022274370215e-08
1774.1683057155963	1.4125375446227554e-08
1779.8233456351472	1.6788040181225588e-08
1786.222750179112	1.9952623149688826e-08
1793.3792037018075	2.3713737056616554e-08
1801.2341426983457	2.818382931264461e-08
1809.8722418299049	3.3496543915782795e-08
1819.2333579306714	3.981071705534969e-08
1829.2304173321213	4.731512589614813e-08
1839.49746362033	5.6234132519034905e-08
1849.9072186815547	6.683439175686162e-08
1860.4658263190106	7.94328234724282e-08
1871.0524908068498	9.440608762859226e-08
1881.5667520038598	1.1220184543019653e-07
1890.9410598138325	1.333521432163324e-07
1901.442535760867	1.584893192461114e-07
1913.1618408558677	1.883649089489802e-07
1925.5421473345118	2.2387211385683422e-07
1936.710493075961	2.6607250597988136e-07
1946.929322852698	3.162277660168379e-07
1956.7245894185246	3.7583740428844433e-07
1966.1929310005023	4.466835921509635e-07
1975.4450848455674	5.308844442309889e-07
1984.270411481718	6.309573444801942e-07
1992.3359061701915	7.498942093324558e-07
2002.022945861143	8.912509381337459e-07
2015.1658538326806	1.0592537251772896e-06
2033.1464465992533	1.2589254117941687e-06
2047.5711869390734	1.4962356560944327e-06
2059.991176401557	1.7782794100389227e-06
2071.694272891398	2.1134890398366474e-06
2083.068587839626	2.511886431509582e-06
2093.9028226362584	2.9853826189179636e-06
2104.2918358944585	3.5481338923357534e-06
2115.0896175929993	4.216965034285822e-06
2126.5728003031395	5.011872336272725e-06
2138.5827024533637	5.95662143529011e-06
2149.280155886986	7.079457843841388e-06
2158.6049415613475	8.413951416451948e-06
2168.29754322111	1e-05       
2178.505602205746	1.188502227437019e-05
2189.042105702046	1.4125375446227555e-05
2198.5683549005726	1.678804018122562e-05
2209.096099476574	1.9952623149688786e-05
2220.6691728502	2.371373705661655e-05
2232.6230535134296	2.818382931264455e-05
2243.6412837791945	3.349654391578279e-05
2252.8815371541705	3.981071705534977e-05
2261.94984767475	4.731512589614803e-05
2270.7442691302103	5.623413251903491e-05
2278.915171454252	6.683439175686148e-05
2285.445332014786	7.943282347242821e-05
2290.1238149826663	9.440608762859246e-05
2294.1905656353038	0.00011220184543019629
2297.0917857342406	0.0001333521432163324
2298.1394532988684	0.00015848931924611142
2296.724293786627	0.00018836490894898024
2292.7917325796207	0.00022387211385683424
2286.3617023560205	0.0002660725059798809
2276.9776743451494	0.0003162277660168379
2264.0755425220123	0.00037583740428844437
2247.1778740821555	0.0004466835921509635
2225.4792189586415	0.0005308844442309889
2197.1791610807604	0.000630957344480193
2160.133036342511	0.0007498942093324559
2111.599224640765	0.0008912509381337458
2041.8744012795385	0.0010592537251772895
1911.4754041858153	0.0012589254117941673
1716.206899986367	0.0014962356560944345
1506.4205013644935	0.0017782794100389225
1537.8068747205539	0.0021134890398366475
1538.9615178017252	0.002511886431509582
1542.5325989324788	0.0029853826189179603
1552.5403531206603	0.0035481338923357567
1566.4068770155636	0.004216965034285822
1581.8525733642787	0.0050118723362727255
1600.958578877176	0.005956621435290103
1623.114992700871	0.00707945784384138
1647.1569131167994	0.008413951416451957
1671.0      	0.01        
1695.236000670474	0.01188502227437019
1723.6885718199367	0.014125375446227554
1752.9377900854665	0.016788040181225587
1780.569831210309	0.01995262314968883
1806.7306446432738	0.023713737056616554
1831.8964128122393	0.02818382931264455
1855.4094688828077	0.033496543915782793
1877.2989763062462	0.03981071705534969
1898.2001635700487	0.04731512589614813
1919.1261281421996	0.056234132519034905
1939.504379959758	0.06683439175686148
1959.2745954889522	0.07943282347242821
1978.3081899662247	0.09440608762859228
1996.8139847834523	0.11220184543019629
2014.8766478562839	0.1333521432163324
2032.7693082003336	0.1584893192461114
2050.218692467294	0.18836490894898023
2066.9870522826277	0.22387211385683378
2082.8620580151155	0.26607250597988086
2096.6120465524814	0.3162277660168379
2109.002162486559	0.3758374042884443
2119.883265422929	0.4466835921509634
2129.191725268036	0.5308844442309879
2136.8350885154164	0.630957344480193
2143.076705643446	0.7498942093324559
2148.4309330757533	0.8912509381337458
2153.009259697496	1.0592537251772898
2156.9774807385534	1.2589254117941662
2160.00202306787	1.4962356560944328
2162.434500760823	1.7782794100389228
2164.3716238470893	2.1134890398366473
2165.856001701887	2.511886431509582
2166.9795519770933	2.9853826189179573
2167.6794557262974	3.548133892335753
2168.2209836111288	4.216965034285823
2168.6300078510626	5.011872336272725
2168.937393387853	5.956621435290109
2169.175114575266	7.079457843841373
2169.4068472662525	8.413951416451948
2169.7      	10.0        
