# T(K)	P(bar)
1090.4      	1e-08       
1105.7109972489661	1.1885022274370215e-08
1115.2823256734218	1.4125375446227554e-08
1121.3843255445345	1.6788040181225588e-08
1125.9521334288597	1.9952623149688826e-08
1129.768908640964	2.3713737056616554e-08
1133.4712509662195	2.818382931264461e-08
1137.371168115871	3.3496543915782795e-08
1141.5228603724752	3.981071705534969e-08
1145.940483745029	4.731512589614813e-08
1150.3294500972404	5.6234132519034905e-08
1154.8616733497165	6.683439175686162e-08
1159.4946548718033	7.94328234724282e-08
1164.2064843390153	9.440608762859226e-08
1169.030069158907	1.1220184543019653e-07
1173.6010126364968	1.333521432163324e-07
1178.2468010403716	1.584893192461114e-07
1182.9380415754476	1.883649089489802e-07
1187.6609202862194	2.2387211385683422e-07
1192.4473541754119	2.6607250597988136e-07
1197.1499143485953	3.162277660168379e-07
1202.1163796082303	3.7583740428844433e-07
1207.4078031899583	4.466835921509635e-07
1213.0565739158214	5.308844442309889e-07
1218.8875933004208	6.309573444801942e-07
1225.0758097066555	7.498942093324558e-07
1231.874014916288	8.912509381337459e-07
1239.6329269163405	1.0592537251772896e-06
1248.7597469446675	1.2589254117941687e-06
1258.2986881371291	1.4962356560944327e-06
1268.3351586092365	1.7782794100389227e-06
1278.9627857372714	2.1134890398366474e-06
1290.188017869815	2.511886431509582e-06
1301.9852957594815	2.9853826189179636e-06
1313.8262424277527	3.5481338923357534e-06
1325.9455738893423	4.216965034285822e-06
1338.302808154202	5.011872336272725e-06
1350.8693850935665	5.95662143529011e-06
1363.3893676306943	7.079457843841388e-06
1375.66290511138	8.413951416451948e-06
1388.2031847133758	1e-05       
1401.1085603496504	1.188502227437019e-05
1414.4527184609972	1.4125375446227555e-05
1427.4927481016034	1.678804018122562e-05
1440.6355173454504	1.9952623149688786e-05
1454.149910167321	2.371373705661655e-05
1468.0885151744806	2.818382931264455e-05
1482.5178124929246	3.349654391578279e-05
1496.7632031126793	3.981071705534977e-05
1511.5684413352346	4.731512589614803e-05
1526.8936543799202	5.623413251903491e-05
1542.6786519793247	6.683439175686148e-05
1558.6855089630724	7.943282347242821e-05
1574.6191474815573	9.440608762859246e-05
1591.058331555925	0.00011220184543019629
1607.9775002547194	0.0001333521432163324
1625.3889952417971	0.00015848931924611142
1642.921249199007	0.00018836490894898024
1660.4029550351893	0.00022387211385683424
1678.3514387819534	0.0002660725059798809
1696.787636258797	0.0003162277660168379
1715.6975678656747	0.00037583740428844437
1734.3005055976273	0.0004466835921509635
1753.4908845461478	0.0005308844442309889
1773.5169439413198	0.000630957344480193
1794.4873730068514	0.0007498942093324559
1816.4317037102812	0.0008912509381337458
1838.4904545613658	0.0010592537251772895
1861.6009302737389	0.0012589254117941673
1885.811175298133	0.0014962356560944345
1911.13482228603	0.0017782794100389225
1937.0661332703821	0.0021134890398366475
1963.4051126668785	0.002511886431509582
1990.976861122166	0.0029853826189179603
2019.6406429731169	0.0035481338923357567
2049.1963579840217	0.004216965034285822
2078.4495707656793	0.0050118723362727255
2107.7449529558785	0.005956621435290103
2137.583592825763	0.00707945784384138
2167.871182673199	0.008413951416451957
2198.4      	0.01        
2227.1754420658963	0.01188502227437019
2255.7840535252635	0.014125375446227554
2284.205953267207	0.016788040181225587
2312.3464506806254	0.01995262314968883
2339.5409740668683	0.023713737056616554
2364.9368816024985	0.02818382931264455
2389.6239172487885	0.033496543915782793
2413.3911855664624	0.03981071705534969
2436.0215057584364	0.04731512589614813
2456.163726339121	0.056234132519034905
2474.2366359955145	0.06683439175686148
2490.787328048702	0.07943282347242821
2505.6928319322915	0.09440608762859228
2518.903119231267	0.11220184543019629
2529.5554589921676	0.1333521432163324
2538.877332572972	0.1584893192461114
2546.9614193523776	0.18836490894898023
2553.853104343463	0.22387211385683378
2559.5968250104943	0.26607250597988086
2563.912217855291	0.3162277660168379
2567.389827764938	0.3758374042884443
2570.082898327699	0.4466835921509634
2572.073807521202	0.5308844442309879
2573.413366028475	0.630957344480193
2574.1309441685585	0.7498942093324559
2574.579077578738	0.8912509381337458
2574.82418519395	1.0592537251772898
2574.9      	1.2589254117941662
2574.9      	1.4962356560944328
2574.9      	1.7782794100389228
2574.9      	2.1134890398366473
2574.9      	2.511886431509582
2574.9      	2.9853826189179573
2574.8245049193006	3.548133892335753
2574.8      	4.216965034285823
2574.7674980372344	5.011872336272725
2574.7      	5.956621435290109
2574.7      	7.079457843841373
2574.631050911249	8.413951416451948
2574.5      	10.0        
