# T(K)	P(bar)
1294.2      	1e-08       
1295.6618540086952	1.1885022274370215e-08
1297.3045182946732	1.4125375446227554e-08
1300.1497949991422	1.6788040181225588e-08
1305.3759891197442	1.9952623149688826e-08
1314.5998625489963	2.3713737056616554e-08
1325.2328153181397	2.818382931264461e-08
1338.6063125885387	3.3496543915782795e-08
1354.325311267449	3.981071705534969e-08
1373.5283802704237	4.731512589614813e-08
1410.6778454659275	5.6234132519034905e-08
1469.0983407910046	6.683439175686162e-08
1515.4283498131808	7.94328234724282e-08
1548.1115335866796	9.440608762859226e-08
1583.8641883100258	1.1220184543019653e-07
1614.2338466696056	1.333521432163324e-07
1642.4212327701796	1.584893192461114e-07
1670.0470594886654	1.883649089489802e-07
1696.4960185831578	2.2387211385683422e-07
1717.3967798992985	2.6607250597988136e-07
1734.1841243434096	3.162277660168379e-07
1750.051181274175	3.7583740428844433e-07
1765.1802882938914	4.466835921509635e-07
1779.678971099364	5.308844442309889e-07
1793.3897464090974	6.309573444801942e-07
1806.1179874343807	7.498942093324558e-07
1819.031719517624	8.912509381337459e-07
1833.6658538326806	1.0592537251772896e-06
1851.8557828549826	1.2589254117941687e-06
1869.8479320960485	1.4962356560944327e-06
1887.8760060865868	1.7782794100389227e-06
1907.3082723968714	2.1134890398366474e-06
1927.8983156188742	2.511886431509582e-06
1947.640699026071	2.9853826189179636e-06
1964.3824325118337	3.5481338923357534e-06
1979.8644810190708	4.216965034285822e-06
1996.3704632126858	5.011872336272725e-06
2015.1668264020273	5.95662143529011e-06
2033.3921174370867	7.079457843841388e-06
2046.7455487326358	8.413951416451948e-06
2058.700363967243	1e-05       
2069.8056022057463	1.188502227437019e-05
2080.28688565601	1.4125375446227555e-05
2089.188462775945	1.678804018122562e-05
2097.4689960074843	1.9952623149688786e-05
2105.5913266498087	2.371373705661655e-05
2113.1866797119274	2.818382931264455e-05
2119.368287159944	3.349654391578279e-05
2123.8344096245155	3.981071705534977e-05
2127.175168382311	4.731512589614803e-05
2129.2899043721773	5.623413251903491e-05
2130.0518083592374	6.683439175686148e-05
2129.25544731527	7.943282347242821e-05
2126.3363966219213	9.440608762859246e-05
2119.4726031654177	0.00011220184543019629
2109.823571271279	0.0001333521432163324
2089.534451763009	0.00015848931924611142
1994.6401444699495	0.00018836490894898024
1529.4033237012834	0.00022387211385683424
1323.8460974258319	0.0002660725059798809
1375.714483465308	0.0003162277660168379
1392.7175070623166	0.00037583740428844437
1411.7855182375679	0.0004466835921509635
1430.329111457393	0.0005308844442309889
1449.0321138537515	0.000630957344480193
1468.345228991753	0.0007498942093324559
1488.6877837314287	0.0008912509381337458
1511.2097339409113	0.0010592537251772895
1535.596344013767	0.0012589254117941673
1561.561074047035	0.0014962356560944345
1589.5596210840258	0.0017782794100389225
1622.6062308140845	0.0021134890398366475
1655.8939177398202	0.002511886431509582
1688.6320739573227	0.0029853826189179603
1720.0421717010854	0.0035481338923357567
1749.2087525652628	0.004216965034285822
1768.8669115545365	0.0050118723362727255
1787.5115181231304	0.005956621435290103
1807.420174462284	0.00707945784384138
1828.5984009155993	0.008413951416451957
1849.3      	0.01        
1867.9963433743656	0.01188502227437019
1886.4664454203748	0.014125375446227554
1904.8355063600495	0.016788040181225587
1922.9802559774637	0.01995262314968883
1939.8376798309241	0.023713737056616554
1954.7850038648771	0.02818382931264455
1968.7372270529029	0.033496543915782793
1981.8470741541564	0.03981071705534969
1994.4821223292809	0.04731512589614813
2007.257149390182	0.056234132519034905
2021.0400487508252	0.06683439175686148
2035.9296103346649	0.07943282347242821
2051.959794142487	0.09440608762859228
2069.1942161379347	0.11220184543019629
2086.5621614002725	0.1333521432163324
2104.040022091556	0.1584893192461114
2121.2099784888815	0.18836490894898023
2137.5308068729687	0.22387211385683378
2152.129430235006	0.26607250597988086
2163.4047158393073	0.3162277660168379
2172.4531436989428	0.3758374042884443
2179.4475802416737	0.4466835921509634
2184.660078732594	0.5308844442309879
2188.2059688989043	0.630957344480193
2190.9565127163737	0.7498942093324559
2193.487851235219	0.8912509381337458
2195.998111400347	1.0592537251772898
2198.636523645041	1.2589254117941662
2200.9630946675925	1.4962356560944328
2203.055069647635	1.7782794100389228
2204.8716238470893	2.1134890398366473
2206.356001701887	2.511886431509582
2207.4795519770933	2.9853826189179573
2208.3304458876964	3.548133892335753
2209.0279781481713	4.216965034285823
2209.6275137393595	5.011872336272725
2210.19971570094	5.956621435290109
2210.833638867377	7.079457843841373
2211.5205417987577	8.413951416451948
2212.2      	10.0        
