# T(K)	P(bar)
1949.9      	1e-08       
1950.0538793693363	1.1885022274370215e-08
1950.4832558210323	1.4125375446227554e-08
1951.0017958180883	1.6788040181225588e-08
1951.5358611310126	1.9952623149688826e-08
1952.3310226335343	2.3713737056616554e-08
1953.1725783464253	2.818382931264461e-08
1954.129905598163	3.3496543915782795e-08
1955.2430139265382	3.981071705534969e-08
1956.5573156232247	4.731512589614813e-08
1958.1248036061575	5.6234132519034905e-08
1959.8664150346353	6.683439175686162e-08
1961.9261862929202	7.94328234724282e-08
1964.340341125442	9.440608762859226e-08
1967.0903870426303	1.1220184543019653e-07
1970.2668053914638	1.333521432163324e-07
1973.7425474642848	1.584893192461114e-07
1977.6206136186227	1.883649089489802e-07
1981.9929509624267	2.2387211385683422e-07
1986.9389326479256	2.6607250597988136e-07
1991.8687625952475	3.162277660168379e-07
1997.6816979793603	3.7583740428844433e-07
2005.2735998453556	4.466835921509635e-07
2015.0882204512634	5.308844442309889e-07
2025.0167129169326	6.309573444801942e-07
2034.961474718007	7.498942093324558e-07
2045.3886376770897	8.912509381337459e-07
2058.8011873237792	1.0592537251772896e-06
2078.2784194561264	1.2589254117941687e-06
2094.95217845108	1.4962356560944327e-06
2115.427283155479	1.7782794100389227e-06
2137.364152666897	2.1134890398366474e-06
2159.1263164698175	2.511886431509582e-06
2179.430475014618	2.9853826189179636e-06
2195.955947269734	3.5481338923357534e-06
2215.9117488433917	4.216965034285822e-06
2238.1255692020286	5.011872336272725e-06
2260.7039354908197	5.95662143529011e-06
2279.80087087973	7.079457843841388e-06
2295.451919572662	8.413951416451948e-06
2316.0035486806187	1e-05       
2339.8548170005897	1.188502227437019e-05
2362.8737713120204	1.4125375446227555e-05
2380.67692555189	1.678804018122562e-05
2397.6133632153956	1.9952623149688786e-05
2419.3423573307505	2.371373705661655e-05
2444.319438496583	2.818382931264455e-05
2465.4307635060172	3.349654391578279e-05
2480.5231773518117	3.981071705534977e-05
2497.6996953495	4.731512589614803e-05
2517.9130259685126	5.623413251903491e-05
2539.7972052919345	6.683439175686148e-05
2556.4411511108565	7.943282347242821e-05
2569.340773850123	9.440608762859246e-05
2582.8152107801825	0.00011220184543019629
2595.69214301913	0.0001333521432163324
2606.37408759505	0.00015848931924611142
2614.078844939474	0.00018836490894898024
2619.7889552983543	0.00022387211385683424
2622.8962035519967	0.0002660725059798809
2622.1034677312728	0.0003162277660168379
2615.908166482834	0.00037583740428844437
2604.436354881463	0.0004466835921509635
2590.1734036686794	0.0005308844442309889
2570.7012772996054	0.000630957344480193
2544.517618887458	0.0007498942093324559
2511.36085643775	0.0008912509381337458
2470.067122237983	0.0010592537251772895
2419.9513465790665	0.0012589254117941673
2360.3035775388	0.0014962356560944345
2290.7613731819774	0.0017782794100389225
2212.7302636040636	0.0021134890398366475
2132.9404747126723	0.002511886431509582
2062.756347120113	0.0029853826189179603
2008.4272537395414	0.0035481338923357567
1973.4924978012034	0.004216965034285822
1956.6426472389687	0.0050118723362727255
1947.2831467438928	0.005956621435290103
1941.8066622646736	0.00707945784384138
1938.3414877988	0.008413951416451957
1935.2      	0.01        
1930.58361891991	0.01188502227437019
1924.7104318107629	0.014125375446227554
1917.5022058198035	0.016788040181225587
1908.9968386540531	0.01995262314968883
1899.613932924297	0.023713737056616554
1890.8635133503587	0.02818382931264455
1882.848389428949	0.033496543915782793
1875.823372219352	0.03981071705534969
1869.9673820361324	0.04731512589614813
1865.6567900830676	0.056234132519034905
1862.7322560357566	0.06683439175686148
1860.6543542807447	0.07943282347242821
1859.3475768271148	0.09440608762859228
1858.8065895485058	0.11220184543019629
1859.0381621520035	0.1333521432163324
1859.730536799139	0.1584893192461114
1860.8160458776715	0.18836490894898023
1862.3324141287987	0.22387211385683378
1864.4863093789352	0.26607250597988086
1867.2991283753774	0.3162277660168379
1870.8000400123583	0.3758374042884443
1875.0367999226778	0.4466835921509634
1880.0156780284797	0.5308844442309879
1885.5315071760735	0.630957344480193
1891.078497517027	0.7498942093324559
1896.8129352066517	0.8912509381337458
1902.7864451280934	1.0592537251772898
1909.0458599007702	1.2589254117941662
1914.9398398245676	1.4962356560944328
1920.4867259744012	1.7782794100389228
1925.846358695395	2.1134890398366473
1930.978864315096	2.511886431509582
1935.7138261891796	2.9853826189179573
1939.6502491156843	3.548133892335753
1943.2538798149428	4.216965034285823
1946.4375686967965	5.011872336272725
1949.1365404906728	5.956621435290109
1951.276031177397	7.079457843841373
1953.0858290412689	8.413951416451948
1955.3      	10.0        
