# T(K)	P(bar)
2759.7      	1e-08       
2734.8484818521806	1.1885022274370215e-08
2704.897408222238	1.4125375446227554e-08
2675.033066823406	1.6788040181225588e-08
2650.897944165826	1.9952623149688826e-08
2639.765683130522	2.3713737056616554e-08
2632.1979668578206	2.818382931264461e-08
2626.638106223438	3.3496543915782795e-08
2622.7032186652887	3.981071705534969e-08
2619.919087033292	4.731512589614813e-08
2618.1164758529194	5.6234132519034905e-08
2616.7161280178784	6.683439175686162e-08
2615.423483424596	7.94328234724282e-08
2614.1733789152463	9.440608762859226e-08
2612.9691361317846	1.1220184543019653e-07
2611.8845054760855	1.333521432163324e-07
2610.8531931079197	1.584893192461114e-07
2609.8651440863496	1.883649089489802e-07
2608.907815942756	2.2387211385683422e-07
2607.9505291649175	2.6607250597988136e-07
2607.1705058444927	3.162277660168379e-07
2606.38978775258	3.7583740428844433e-07
2605.508550836151	4.466835921509635e-07
2604.415968506962	5.308844442309889e-07
2602.9976124404384	6.309573444801942e-07
2601.273535515394	7.498942093324558e-07
2599.022609975412	8.912509381337459e-07
2596.1600366601538	1.0592537251772896e-06
2592.5950971927423	1.2589254117941687e-06
2587.39908857571	1.4962356560944327e-06
2580.2787732647753	1.7782794100389227e-06
2571.052957839792	2.1134890398366474e-06
2559.390263711316	2.511886431509582e-06
2544.86436372472	2.9853826189179636e-06
2526.858656035572	3.5481338923357534e-06
2504.5158467583583	4.216965034285822e-06
2475.6041246065347	5.011872336272725e-06
2439.5170579435953	5.95662143529011e-06
2401.481667957384	7.079457843841388e-06
1830.8763886457732	8.413951416451948e-06
1623.8220200181984	1e-05       
1706.4149878275332	1.188502227437019e-05
1793.7824889047292	1.4125375446227555e-05
1880.6899918388303	1.678804018122562e-05
1913.6660853518654	1.9952623149688786e-05
1925.577846200391	2.371373705661655e-05
1928.5763626198498	2.818382931264455e-05
1928.0693885145079	3.349654391578279e-05
1926.0673336165964	3.981071705534977e-05
1923.4809172496434	4.731512589614803e-05
1920.46528005291	5.623413251903491e-05
1917.192414272874	6.683439175686148e-05
1913.9273339926071	7.943282347242821e-05
1910.9079867063733	9.440608762859246e-05
1908.206289576464	0.00011220184543019629
1905.7610713945305	0.0001333521432163324
1903.5037762541726	0.00015848931924611142
1901.7741368503223	0.00018836490894898024
1900.6542547988608	0.00022387211385683424
1900.0694618340008	0.0002660725059798809
1900.014630558698	0.0003162277660168379
1900.4398783932838	0.00037583740428844437
1901.3700252798812	0.0004466835921509635
1902.8305565279884	0.0005308844442309889
1904.7464401167576	0.000630957344480193
1907.0987520264227	0.0007498942093324559
1909.9018599629921	0.0008912509381337458
1913.2640418142862	0.0010592537251772895
1917.1646156295953	0.0012589254117941673
1921.5747468722548	0.0014962356560944345
1926.4970657317747	0.0017782794100389225
1932.0311869784352	0.0021134890398366475
1937.9093110068504	0.002511886431509582
1944.266079145983	0.0029853826189179603
1951.084396379295	0.0035481338923357567
1958.3198967800374	0.004216965034285822
1965.5746935498885	0.0050118723362727255
1972.916853256107	0.005956621435290103
1980.2663793700003	0.00707945784384138
1987.5115147103998	0.008413951416451957
1994.6      	0.01        
2000.90905414279	0.01188502227437019
2006.8515615366287	0.014125375446227554
2012.3861213626228	0.016788040181225587
2017.4472362205684	0.01995262314968883
2021.820624484438	0.023713737056616554
2025.3605477808305	0.02818382931264455
2028.3958996873623	0.033496543915782793
2030.9475860010334	0.03981071705534969
2033.0651814043858	0.04731512589614813
2034.711043786465	0.056234132519034905
2035.892600455865	0.06683439175686148
2036.780540573665	0.07943282347242821
2037.408873694918	0.09440608762859228
2037.8065895485058	0.11220184543019629
2038.0381621520035	0.1333521432163324
2038.1573215271944	0.1584893192461114
2038.2      	0.18836490894898023
2038.2      	0.22387211385683378
2038.2      	0.26607250597988086
2038.1270505844493	0.3162277660168379
2038.0489787752579	0.3758374042884443
2038.0      	0.4466835921509634
2037.9897760281647	0.5308844442309879
2037.9109784689133	0.630957344480193
2037.7672639578605	0.7498942093324559
2037.610461210631	0.8912509381337458
2037.4516296121	1.0592537251772898
2037.286347635496	1.2589254117941662
2037.0536905332408	1.4962356560944328
2036.8205688868113	1.7782794100389228
2036.5070940382277	2.1134890398366473
2036.1085708207547	2.511886431509582
2035.7073028653238	2.9853826189179573
2035.0960393544026	3.548133892335753
2034.4185245833073	4.216965034285823
2033.6424784095782	5.011872336272725
2032.725497523355	5.956621435290109
2031.6161319820903	7.079457843841373
2030.327865491236	8.413951416451948
2028.9      	10.0        
