# T(K)	P(bar)
2818.8      	1e-08       
2808.3362028851284	1.1885022274370215e-08
2777.93408587512	1.4125375446227554e-08
2749.648819184485	1.6788040181225588e-08
2736.1262219038013	1.9952623149688826e-08
2723.4036378634537	2.3713737056616554e-08
2713.0992942380262	2.818382931264461e-08
2703.191669679059	3.3496543915782795e-08
2693.6989025142325	3.981071705534969e-08
2685.049395318714	4.731512589614813e-08
2679.5631873784496	5.6234132519034905e-08
2675.4758984044724	6.683439175686162e-08
2672.304684563229	7.94328234724282e-08
2669.8991810033776	9.440608762859226e-08
2668.058113321708	1.1220184543019653e-07
2666.586114574687	1.333521432163324e-07
2665.280853055901	1.584893192461114e-07
2664.020192115133	1.883649089489802e-07
2662.727739252238	2.2387211385683422e-07
2661.3715829836333	2.6607250597988136e-07
2660.132809351188	3.162277660168379e-07
2658.93468162887	3.7583740428844433e-07
2657.748327887866	4.466835921509635e-07
2656.556864394304	5.308844442309889e-07
2655.4536985647856	6.309573444801942e-07
2654.3708477050227	7.498942093324558e-07
2653.317997869102	8.912509381337459e-07
2652.285592478651	1.0592537251772896e-06
2651.2135350248077	1.2589254117941687e-06
2649.7400400438582	1.4962356560944327e-06
2647.8449303523653	1.7782794100389227e-06
2645.33391469053	2.1134890398366474e-06
2642.067422371697	2.511886431509582e-06
2637.9744892263025	2.9853826189179636e-06
2633.0683148352196	3.5481338923357534e-06
2627.220218518286	4.216965034285822e-06
2620.3148076489692	5.011872336272725e-06
2612.2665867989863	5.95662143529011e-06
2603.1539412814564	7.079457843841388e-06
2592.9608221073904	8.413951416451948e-06
2581.527388535032	1e-05       
2568.832094095543	1.188502227437019e-05
2554.8816214008953	1.4125375446227555e-05
2539.9675755245134	1.678804018122562e-05
2523.962007985032	1.9952623149688786e-05
2506.3202378171127	2.371373705661655e-05
2486.8599552733917	2.818382931264455e-05
2465.5620962947605	3.349654391578279e-05
2443.462490306276	3.981071705534977e-05
2419.925625358061	4.731512589614803e-05
2395.692090150987	5.623413251903491e-05
2371.680272386805	6.683439175686148e-05
2349.5414353645065	7.943282347242821e-05
2331.4626904915954	9.440608762859246e-05
2316.084789219817	0.00011220184543019629
2302.658214101424	0.0001333521432163324
2290.001564122772	0.00015848931924611142
2276.7934086751875	0.00018836490894898024
2261.8837073365826	0.00022387211385683424
2244.382895832049	0.0002660725059798809
2223.4699792489964	0.0003162277660168379
2198.187336221077	0.00037583740428844437
2167.570001203905	0.0004466835921509635
2130.818230907704	0.0005308844442309889
2087.92577465759	0.000630957344480193
2039.5316411115587	0.0007498942093324559
1987.714188684117	0.0008912509381337458
1940.1292318314888	0.0010592537251772895
1897.6492574440763	0.0012589254117941673
1861.7703067356335	0.0014962356560944345
1833.3939235258786	0.0017782794100389225
1812.5223805384728	0.0021134890398366475
1797.754736464417	0.002511886431509582
1786.0548565292877	0.0029853826189179603
1776.8648392567209	0.0035481338923357567
1769.6534021466416	0.004216965034285822
1764.816870966741	0.0050118723362727255
1761.5957187661068	0.005956621435290103
1759.5623688052174	0.00707945784384138
1758.6777961231999	0.008413951416451957
1759.0      	0.01        
1760.5387936933635	0.01188502227437019
1762.9162791051622	0.014125375446227554
1766.21526445375	0.016788040181225587
1770.4830973515807	0.01995262314968883
1775.6516471179718	0.023713737056616554
1781.5782828201063	0.02818382931264455
1788.2124306335786	0.033496543915782793
1795.5411486704554	0.03981071705534969
1803.549504365413	0.04731512589614813
1812.0139394732494	0.056234132519034905
1820.5770464715006	0.06683439175686148
1829.2510514559042	0.07943282347242821
1837.9734465492108	0.09440608762859228
1846.7350272300403	0.11220184543019629
1854.99445008813	0.1333521432163324
1862.9321527194445	0.1584893192461114
1870.6426093163989	0.18836490894898023
1878.1093497531217	0.22387211385683378
1885.129452790604	0.26607250597988086
1891.6277509062625	0.3162277660168379
1897.8286343051343	0.3758374042884443
1903.7379146641003	0.4466835921509634
1909.374782141138	0.5308844442309879
1914.5754210517266	0.630957344480193
1919.2157132431194	0.7498942093324559
1923.4832391289085	0.8912509381337458
1927.3399633398462	1.0592537251772898
1930.7365236450407	1.2589254117941662
1933.0630946675924	1.4962356560944328
1934.9158281633831	1.7782794100389228
1936.3401366929627	2.1134890398366473
1937.382858358491	2.511886431509582
1938.1853942693526	2.9853826189179573
1938.6529704841982	3.548133892335753
1939.0139890740857	4.216965034285823
1939.2650039255313	5.011872336272725
1939.4124644626177	5.956621435290109
1939.491704858422	7.079457843841373
1939.5689490887507	8.413951416451948
1939.6      	10.0        
