# T(K)	P(bar)
1192.4      	1e-08       
1195.3237080173906	1.1885022274370215e-08
1198.718538252499	1.4125375446227554e-08
1202.5152644537502	1.6788040181225588e-08
1206.6879945598723	1.9952623149688826e-08
1211.2999312744982	2.3713737056616554e-08
1216.3354700785517	2.818382931264461e-08
1221.885616481852	3.3496543915782795e-08
1227.9150696326913	3.981071705534969e-08
1234.3921887421884	4.731512589614813e-08
1241.289135867092	5.6234132519034905e-08
1248.42941731396	6.683439175686162e-08
1255.985946310314	7.94328234724282e-08
1263.9427981153094	9.440608762859226e-08
1272.2380926976602	1.1220184543019653e-07
1280.6052434701974	1.333521432163324e-07
1289.119135240681	1.584893192461114e-07
1297.967369172483	1.883649089489802e-07
1307.301917262957	2.2387211385683422e-07
1317.2736545321081	2.6607250597988136e-07
1327.3563734371473	3.162277660168379e-07
1337.9919502391388	3.7583740428844433e-07
1349.19627522477	4.466835921509635e-07
1360.9847156344908	5.308844442309889e-07
1373.198337318449	6.309573444801942e-07
1385.7179874343808	7.498942093324558e-07
1399.3480298325758	8.912509381337459e-07
1414.744927862931	1.0592537251772896e-06
1432.605841524831	1.2589254117941687e-06
1451.451066807499	1.4962356560944327e-06
1471.4703172184732	1.7782794100389227e-06
1493.4200329369232	2.1134890398366474e-06
1517.926899203782	2.511886431509582e-06
1545.694641719596	2.9853826189179636e-06
1574.1331798588867	3.5481338923357534e-06
1605.615355510477	4.216965034285822e-06
1640.2784166115432	5.011872336272725e-06
1678.2067337853998	5.95662143529011e-06
1718.9362972289678	7.079457843841388e-06
1762.9836242092224	8.413951416451948e-06
1810.4626933575978	1e-05       
1861.3201445458753	1.188502227437019e-05
1915.3696314763413	1.4125375446227555e-05
1969.3256822647186	1.678804018122562e-05
2020.6780227133527	1.9952623149688786e-05
2069.0741253288134	2.371373705661655e-05
2114.0564520730663	2.818382931264455e-05
2155.960349647208	3.349654391578279e-05
2186.0681752273385	3.981071705534977e-05
2213.500857968615	4.731512589614803e-05
2236.173463124275	5.623413251903491e-05
2252.8746829706743	6.683439175686148e-05
2264.02373758622	7.943282347242821e-05
2271.0999274317733	9.440608762859246e-05
2276.6878139456007	0.00011220184543019629
2280.6967857506743	0.0001333521432163324
2282.935677044696	0.00015848931924611142
2283.2501569363053	0.00018836490894898024
2282.0639108598734	0.00022387211385683424
2279.6159783980083	0.0002660725059798809
2275.74102440171	0.0003162277660168379
2270.1710032554092	0.00037583740428844437
2262.4972914409786	0.0004466835921509635
2252.454887743315	0.0005308844442309889
2239.898139241076	0.000630957344480193
2224.599558227875	0.0007498942093324559
2206.33931224108	0.0008912509381337458
2184.6320937441537	0.0010592537251772895
2160.4514934271842	0.0012589254117941673
2134.313942828148	0.0014962356560944345
2106.9057645676153	0.0017782794100389225
2079.867629333931	0.0021134890398366475
2054.1390746198144	0.002511886431509582
2028.349906181709	0.0029853826189179603
2002.5015552165305	0.0035481338923357567
1976.6055175656772	0.004216965034285822
1951.5647674245786	0.0050118723362727255
1927.4411494433582	0.005956621435290103
1904.8595294370639	0.00707945784384138
1884.9685409324004	0.008413951416451957
1869.1      	0.01        
1859.5594791011467	0.01188502227437019
1853.6339534317403	0.014125375446227554
1850.9318368182596	0.016788040181225587
1851.0891000716447	0.01995262314968883
1853.951681480723	0.023713737056616554
1858.6950012882924	0.02818382931264455
1864.4278878657608	0.033496543915782793
1870.9088882255517	0.03981071705534969
1877.9236518668333	0.04731512589614813
1885.1340965883235	0.056234132519034905
1891.9468742614463	0.06683439175686148
1898.4825828770213	0.07943282347242821
1904.6460064678345	0.09440608762859228
1910.3295944539475	0.11220184543019629
1914.8838556560715	0.1333521432163324
1918.67946872375	0.1584893192461114
1921.8683297481468	0.18836490894898023
1924.5964754812132	0.22387211385683378
1927.0694663239628	0.26607250597988086
1929.0966848043192	0.3162277660168379
1930.973488169066	0.3758374042884443
1932.9130098018409	0.4466835921509634
1935.0760472395564	0.5308844442309879
1937.2035813393427	0.630957344480193
1939.1592005267455	0.7498942093324559
1940.9849266830586	0.8912509381337458
1942.6595186850484	1.0592537251772898
1944.1409570935123	1.2589254117941662
1944.8389284002778	1.4962356560944328
1945.2990518553145	1.7782794100389228
1945.6543247694178	2.1134890398366473
1945.9548575075473	2.511886431509582
1946.1956182808058	2.9853826189179573
1946.426485242099	3.548133892335753
1946.606994537043	4.216965034285823
1946.7975058882969	5.011872336272725
1947.0373933878525	5.956621435290109
1947.2751145752663	7.079457843841373
1947.5068472662524	8.413951416451948
1947.8      	10.0        
