# T(K)	P(bar)
2877.7      	1e-08       
2773.369787589959	1.1885022274370215e-08
2736.734418505546	1.4125375446227554e-08
2729.4075932740684	1.6788040181225588e-08
2722.640283178103	1.9952623149688826e-08
2716.4380234584337	2.3713737056616554e-08
2711.05382673606	2.818382931264461e-08
2706.1896519466563	3.3496543915782795e-08
2701.870958220385	3.981071705534969e-08
2698.1011003158733	4.731512589614813e-08
2695.122873148301	5.6234132519034905e-08
2692.6235275620134	6.683439175686162e-08
2690.4429428509306	7.94328234724282e-08
2688.5427304813447	9.440608762859226e-08
2686.864727007754	1.1220184543019653e-07
2685.6251491155263	1.333521432163324e-07
2684.6106397919257	1.584893192461114e-07
2683.773858064762	1.883649089489802e-07
2683.0878926332744	2.2387211385683422e-07
2682.529475346202	2.6607250597988136e-07
2682.0623035066956	3.162277660168379e-07
2681.5938726515483	3.7583740428844433e-07
2681.059108206862	4.466835921509635e-07
2680.407984253481	5.308844442309889e-07
2679.698806220219	6.309573444801942e-07
2678.7372157260925	7.498942093324558e-07
2677.6732284744176	8.912509381337459e-07
2676.4888517028517	1.0592537251772896e-06
2675.099882660303	1.2589254117941687e-06
2673.3937305770987	1.4962356560944327e-06
2671.2056888681136	1.7782794100389227e-06
2668.53391469053	2.1134890398366474e-06
2665.303994043395	2.511886431509582e-06
2661.371568080173	2.9853826189179636e-06
2656.619304996619	3.5481338923357534e-06
2651.087704860893	4.216965034285822e-06
2644.6748233510943	5.011872336272725e-06
2637.2413735746914	5.95662143529011e-06
2628.604170431989	7.079457843841388e-06
2618.8055675511446	8.413951416451948e-06
2607.6690627843495	1e-05       
2594.9727485407366	1.188502227437019e-05
2580.471181308824	1.4125375446227555e-05
2564.307791275258	1.678804018122562e-05
2546.4979613165833	1.9952623149688786e-05
2526.8107689980457	2.371373705661655e-05
2505.141768372641	2.818382931264455e-05
2481.4267753499616	3.349654391578279e-05
2457.017106017733	3.981071705534977e-05
2430.9747995035673	4.731512589614803e-05
2403.262486323396	5.623413251903491e-05
2373.9983559791804	6.683439175686148e-05
2343.8959085172073	7.943282347242821e-05
2313.4503265570206	9.440608762859246e-05
2281.4319610432985	0.00011220184543019629
2248.002856635766	0.0001333521432163324
2213.366605822276	0.00015848931924611142
2178.6951977723675	0.00018836490894898024
2144.0543192222794	0.00022387211385683424
2109.384940486088	0.0002660725059798809
2075.391998633738	0.0003162277660168379
2042.893678603167	0.00037583740428844437
2014.7567352835888	0.0004466835921509635
1990.5136106782586	0.0005308844442309889
1968.5083103360546	0.000630957344480193
1947.8231998112667	0.0007498942093324559
1927.8010002643418	0.0008912509381337458
1909.8895977064917	0.0010592537251772895
1892.4763995682765	0.0012589254117941673
1874.469766729777	0.0014962356560944345
1854.962243445745	0.0017782794100389225
1834.565053708053	0.0021134890398366475
1814.2395051193705	0.002511886431509582
1793.3193417825066	0.0029853826189179603
1771.8452821341466	0.0035481338923357567
1749.9353445551635	0.004216965034285822
1729.4970998917122	0.0050118723362727255
1710.5047917740453	0.005956621435290103
1693.1499061658685	0.00707945784384138
1677.5186234868004	0.008413951416451957
1663.1      	0.01        
1650.943529822429	0.01188502227437019
1640.2371427266878	0.014125375446227554
1631.070369001544	0.016788040181225587
1623.4674554043054	0.01995262314968883
1617.4242279851405	0.023713737056616554
1613.037108267874	0.02818382931264455
1609.8010088662013	0.033496543915782793
1607.6569860734617	0.03981071705534969
1606.4528053130325	0.04731512589614813
1605.9825589181528	0.056234132519034905
1605.8362428245812	0.06683439175686148
1605.7577177140372	0.07943282347242821
1605.6129010440657	0.09440608762859228
1605.278034838314	0.11220184543019629
1604.5061261599878	0.1333521432163324
1603.4401770920833	0.1584893192461114
1602.1477161295245	0.18836490894898023
1600.7117239141342	0.22387211385683378
1599.2757937473766	0.26607250597988086
1598.1787081822895	0.3162277660168379
1597.28978775258	0.3758374042884443
1596.5892196810041	0.4466835921509634
1596.0693280844937	0.5308844442309879
1595.8329354067396	0.630957344480193
1595.6672639578603	0.7498942093324559
1595.6      	0.8912509381337458
1595.6      	1.0592537251772898
1595.604550788168	1.2589254117941662
1595.6821031555864	1.4962356560944328
1595.759810371063	1.7782794100389228
1595.8385811923545	2.1134890398366473
1595.9182858358492	2.511886431509582
1595.9985394269352	2.9853826189179573
1596.1509901613995	3.548133892335753
1596.3604918055644	4.216965034285823
1596.5975058882968	5.011872336272725
1596.84985785047	5.956621435290109
1597.1668194336885	7.079457843841373
1597.5447454437542	8.413951416451948
1598.0      	10.0        
