# T(K)	P(bar)
2945.1      	1e-08       
2892.5501953716384	1.1885022274370215e-08
2852.4906307802275	1.4125375446227554e-08
2817.3998441887734	1.6788040181225588e-08
2783.1943076586786	1.9952623149688826e-08
2756.2383327231923	2.3713737056616554e-08
2738.729370652013	2.818382931264461e-08
2726.776212446877	3.3496543915782795e-08
2719.3217628867073	3.981071705534969e-08
2714.940429221679	4.731512589614813e-08
2712.3540740498406	5.6234132519034905e-08
2710.3698277899457	6.683439175686162e-08
2708.654354280745	7.94328234724282e-08
2707.1080546982953	9.440608762859226e-08
2705.666931569769	1.1220184543019653e-07
2704.5048272958056	1.333521432163324e-07
2703.4531931079196	1.584893192461114e-07
2702.501382079154	1.883649089489802e-07
2701.6558619570674	2.2387211385683422e-07
2700.9378968736883	2.6607250597988136e-07
2700.316404675594	3.162277660168379e-07
2699.742851426806	3.7583740428844433e-07
2699.189219681004	4.466835921509635e-07
2698.6182082253163	5.308844442309889e-07
2697.9878277513058	6.309573444801942e-07
2697.3026878103715	7.498942093324558e-07
2696.552306053155	8.912509381337459e-07
2695.709777672601	1.0592537251772896e-06
2694.7317381774797	1.2589254117941687e-06
2693.568452666204	1.4962356560944327e-06
2692.1636029498054	1.7782794100389227e-06
2690.4740513834927	2.1134890398366474e-06
2688.4331390886787	2.511886431509582e-06
2685.945277765007	2.9853826189179636e-06
2682.804701691313	3.5481338923357534e-06
2679.018142036886	4.216965034285822e-06
2674.487372420235	5.011872336272725e-06
2669.0529851401293	5.95662143529011e-06
2662.396791892542	7.079457843841388e-06
2654.529294769915	8.413951416451948e-06
2645.396906278435	1e-05       
2634.657015575028	1.188502227437019e-05
2621.88852390665	1.4125375446227555e-05
2607.0525620400917	1.678804018122562e-05
2589.810770650273	1.9952623149688786e-05
2569.2423916167218	2.371373705661655e-05
2544.887819491239	2.818382931264455e-05
2516.6302314341788	3.349654391578279e-05
2485.906388962383	3.981071705534977e-05
2451.737123092726	4.731512589614803e-05
2414.9332923293323	5.623413251903491e-05
2376.50162040748	6.683439175686148e-05
2338.355926401434	7.943282347242821e-05
2302.052660307575	9.440608762859246e-05
2265.7904126616722	0.00011220184543019629
2229.4217851755016	0.0001333521432163324
2192.6436242929267	0.00015848931924611142
2156.006716920461	0.00018836490894898024
2118.907427557849	0.00022387211385683424
2079.864999058103	0.0002660725059798809
2038.3906385432413	0.0003162277660168379
1993.9961107374925	0.00037583740428844437
1947.2562296859617	0.0004466835921509635
1896.322191104372	0.0005308844442309889
1838.6390838110979	0.000630957344480193
1770.859832817135	0.0007498942093324559
1687.8077490964904	0.0008912509381337458
1409.0142839243222	0.0010592537251772895
1277.0078342562133	0.0012589254117941673
1255.4047101395495	0.0014962356560944345
1282.5040509827477	0.0017782794100389225
1296.4184129743512	0.0021134890398366475
1309.4657694694915	0.002511886431509582
1323.4145790715104	0.0029853826189179603
1338.7048760363627	0.0035481338923357567
1355.898822355814	0.004216965034285822
1378.2092726372914	0.0050118723362727255
1396.1256874033593	0.005956621435290103
1414.9013588648925	0.00707945784384138
1436.4930563323992	0.008413951416451957
1460.9      	0.01        
1484.5974228777968	0.01188502227437019
1509.2750169359165	0.014125375446227554
1537.9929725388736	0.016788040181225587
1568.1330197568952	0.01995262314968883
1580.6170553464863	0.023713737056616554
1596.4492229772095	0.02818382931264455
1602.8453628303453	0.033496543915782793
1602.39085585101	0.03981071705534969
1599.7931800113624	0.04731512589614813
1589.7612569205935	0.056234132519034905
1577.7350947575533	0.06683439175686148
1564.9657051021063	0.07943282347242821
1552.2120144134785	0.09440608762859228
1540.3055498047504	0.11220184543019629
1536.9863424879477	0.1333521432163324
1541.4882235562777	0.1584893192461114
1541.5500587843424	0.18836490894898023
1536.9062086869262	0.22387211385683378
1548.3936500209884	0.26607250597988086
1548.708202337797	0.3162277660168379
1555.7939926886227	0.3758374042884443
1567.5178358627618	0.4466835921509634
1580.049564282276	0.5308844442309879
1590.4508421034532	0.630957344480193
1601.4569950340542	0.7498942093324559
1613.0601785973568	0.8912509381337458
1624.7375567650881	1.0592537251772898
1635.4593949255777	1.2589254117941662
1639.8798798684259	1.4962356560944328
1643.292414842515	1.7782794100389228
1646.944803194787	2.1134890398366473
1651.516580181134	2.511886431509582
1657.2948387393378	2.9853826189179573
1663.7415867787743	3.548133892335753
1670.6682514354497	4.216965034285823
1677.955184499968	5.011872336272725
1685.4591950234283	5.956621435290109
1692.8285518332566	7.079457843841373
1700.3570106975803	8.413951416451948
1710.8      	10.0        
