# T(K)	P(bar)
1706.9      	1e-08       
1709.131250855377	1.1885022274370215e-08
1711.8805315998904	1.4125375446227554e-08
1715.1471012720099	1.6788040181225588e-08
1718.9608223336697	1.9952623149688826e-08
1723.4137267477913	2.3713737056616554e-08
1728.5759388688107	2.818382931264461e-08
1734.5247964193243	3.3496543915782795e-08
1741.3303951888208	3.981071705534969e-08
1749.088833271219	4.731512589614813e-08
1757.9451403747887	5.6234132519034905e-08
1767.852189979879	6.683439175686162e-08
1778.9000606084521	7.94328234724282e-08
1791.136381410259	9.440608762859226e-08
1804.5990257247825	1.1220184543019653e-07
1818.6217506306086	1.333521432163324e-07
1833.2723166451826	1.584893192461114e-07
1848.502646589623	1.883649089489802e-07
1864.1550216064204	2.2387211385683422e-07
1879.8704795426024	2.6607250597988136e-07
1894.852186616844	3.162277660168379e-07
1909.2838204535608	3.7583740428844433e-07
1923.2791735524688	4.466835921509635e-07
1936.9971793246805	5.308844442309889e-07
1950.0775741604034	6.309573444801942e-07
1962.651619413311	7.498942093324558e-07
1975.3078725442017	8.912509381337459e-07
1990.3430392632781	1.0592537251772896e-06
2010.89242383972	1.2589254117941687e-06
2032.9172961865422	1.4962356560944327e-06
2053.7899379605988	1.7782794100389227e-06
2074.2767852427446	2.1134890398366474e-06
2095.6868949490645	2.511886431509582e-06
2120.645761776862	2.9853826189179636e-06
2143.597534048509	3.5481338923357534e-06
2164.167322593313	4.216965034285822e-06
2183.9229965797012	5.011872336272725e-06
2204.739338785253	5.95662143529011e-06
2228.511457526635	7.079457843841388e-06
2246.720392235187	8.413951416451948e-06
2263.292174704277	1e-05       
2278.813154606538	1.188502227437019e-05
2293.642451035805	1.4125375446227555e-05
2307.6975728041234	1.678804018122562e-05
2320.8478317452364	1.9952623149688786e-05
2333.880087227632	2.371373705661655e-05
2346.6703282737294	2.818382931264455e-05
2358.6589442515938	3.349654391578279e-05
2369.054229298442	3.981071705534977e-05
2379.403303417974	4.731512589614803e-05
2389.7841051968	5.623413251903491e-05
2399.989384704692	6.683439175686148e-05
2409.0679006059217	7.943282347242821e-05
2416.8590084451967	9.440608762859246e-05
2424.132507115459	0.00011220184543019629
2430.7117857999747	0.0001333521432163324
2436.381640103395	0.00015848931924611142
2440.6271186401186	0.00018836490894898024
2443.251719694937	0.00022387211385683424
2444.4305381659997	0.0002660725059798809
2444.0726994299903	0.0003162277660168379
2442.137163227425	0.00037583740428844437
2438.3390634404846	0.0004466835921509635
2432.301980098334	0.0005308844442309889
2424.5516123942825	0.000630957344480193
2415.3589567011036	0.0007498942093324559
2404.867324138515	0.0008912509381337458
2391.8147465853885	0.0010592537251772895
2376.706675394962	0.0012589254117941673
2360.0884196974744	0.0014962356560944345
2342.424136471899	0.0017782794100389225
2323.8453008581105	0.0021134890398366475
2303.4688915605734	0.002511886431509582
2281.2226982373218	0.0029853826189179603
2257.3807592184444	0.0035481338923357567
2232.204892382444	0.004216965034285822
2205.759988027826	0.0050118723362727255
2177.42242724977	0.005956621435290103
2147.896111073585	0.00707945784384138
2117.670470234401	0.008413951416451957
2086.9      	0.01        
2055.046970547377	0.01188502227437019
2022.9974082222377	0.014125375446227554
1991.7877613694843	0.016788040181225587
1961.5470714381102	0.01995262314968883
1930.2177082387543	0.023713737056616554
1901.3728050118004	0.02818382931264455
1877.2173452689187	0.033496543915782793
1856.8209213243783	0.03981071705534969
1838.0358098647882	0.04731512589614813
1819.4610772670362	0.056234132519034905
1803.639836442472	0.06683439175686148
1789.9462456757713	0.07943282347242821
1778.1475091931502	0.09440608762859228
1767.7089030933319	0.11220184543019629
1760.9932975918946	0.1333521432163324
1757.65231876575	0.1584893192461114
1757.405949820105	0.18836490894898023
1760.1370890053595	0.22387211385683378
1765.8010357742373	0.26607250597988086
1775.1457275282921	0.3162277660168379
1787.173608206141	0.3758374042884443
1801.8234095698747	0.4466835921509634
1818.9026333813244	0.5308844442309879
1837.42005980539	0.630957344480193
1854.9328047407096	0.7498942093324559
1871.2300319634742	0.8912509381337458
1885.8696310319863	1.0592537251772898
1898.5961532500116	1.2589254117941662
1908.7555133818205	1.4962356560944328
1916.7221748799102	1.7782794100389228
1923.3164270418763	2.1134890398366473
1929.0251510018884	2.511886431509582
1934.4021416046614	2.9853826189179573
1939.633665487579	3.548133892335753
1944.9913115279783	4.216965034285823
1950.4426354308275	5.011872336272725
1955.9351189953732	5.956621435290109
1961.2442255142817	7.079457843841373
1966.695385301308	8.413951416451948
1974.6      	10.0        
