# T(K)	P(bar)
2426.8      	1e-08       
2426.9538793693364	1.1885022274370215e-08
2427.3832558210324	1.4125375446227554e-08
2427.901795818088	1.6788040181225588e-08
2428.4222750179115	1.9952623149688826e-08
2429.1379203701804	2.3713737056616554e-08
2429.9725783464255	2.818382931264461e-08
2430.9299055981633	3.3496543915782795e-08
2432.043013926538	3.981071705534969e-08
2433.349449842063	4.731512589614813e-08
2434.8385634258493	5.6234132519034905e-08
2436.566415034635	6.683439175686162e-08
2438.5839040069573	7.94328234724282e-08
2440.918566386458	9.440608762859226e-08
2443.583773356584	1.1220184543019653e-07
2446.527770850625	1.333521432163324e-07
2449.8851007802787	1.584893192461114e-07
2453.6481376330144	1.883649089489802e-07
2457.8128742719086	2.2387211385683422e-07
2462.359986466641	2.6607250597988136e-07
2467.2687625952476	3.162277660168379e-07
2472.5714857319404	3.7583740428844433e-07
2478.318583508954	4.466835921509635e-07
2484.5383656905046	5.308844442309889e-07
2490.999765549115	6.309573444801942e-07
2497.7403858541443	7.498942093324558e-07
2504.684476126919	8.912509381337459e-07
2513.227779092487	1.0592537251772896e-06
2525.250762708028	1.2589254117941687e-06
2536.3407512488575	1.4962356560944327e-06
2546.6753482381737	1.7782794100389227e-06
2556.3754183131186	2.1134890398366474e-06
2565.365155256606	2.511886431509582e-06
2573.551021547395	2.9853826189179636e-06
2580.494557262972	3.5481338923357534e-06
2586.872786944671	4.216965034285822e-06
2592.645129542531	5.011872336272725e-06
2597.7980099065803	5.95662143529011e-06
2602.2354720716385	7.079457843841388e-06
2606.07850534879	8.413951416451948e-06
2609.583439490446	1e-05       
2612.7295157363724	1.188502227437019e-05
2615.458757632353	1.4125375446227555e-05
2617.2546898583046	1.678804018122562e-05
2618.2256186673794	1.9952623149688786e-05
2618.9287315019455	2.371373705661655e-05
2619.1939376997498	2.818382931264455e-05
2618.3646790552016	3.349654391578279e-05
2616.0546157114577	3.981071705534977e-05
2613.324831617689	4.731512589614803e-05
2609.8803551890564	5.623413251903491e-05
2605.270009381672	6.683439175686148e-05
2598.660212716741	7.943282347242821e-05
2590.1819105413797	9.440608762859246e-05
2579.7784996433534	0.00011220184543019629
2565.9910711644616	0.0001333521432163324
2547.0744823349355	0.00015848931924611142
2521.2871312229854	0.00018836490894898024
2487.33868866747	0.00022387211385683424
2441.8418872061366	0.0002660725059798809
2373.566793621175	0.0003162277660168379
2256.213303559826	0.00037583740428844437
1874.0004454087516	0.0004466835921509635
1772.5268463413993	0.0005308844442309889
1765.7313569343614	0.000630957344480193
1762.4802495947154	0.0007498942093324559
1761.9196280074016	0.0008912509381337458
1762.938558759091	0.0010592537251772895
1765.2300146848117	0.0012589254117941673
1768.781009528642	0.0014962356560944345
1773.5198390383969	0.0017782794100389225
1779.2120780349621	0.0021134890398366475
1785.5152313450465	0.002511886431509582
1792.526326663362	0.0029853826189179603
1800.214364745193	0.0035481338923357567
1808.5093413873558	0.004216965034285822
1817.0122752358907	0.0050118723362727255
1825.657763838779	0.005956621435290103
1834.6228261621745	0.00707945784384138
1843.9727817575997	0.008413951416451957
1853.8      	0.01        
1863.4174605835212	0.01188502227437019
1873.5271097680404	0.014125375446227554
1884.1076711796818	0.016788040181225587
1895.1020558341743	0.01995262314968883
1906.2343168694783	0.023713737056616554
1917.2435185035283	0.02818382931264455
1928.380507303013	0.033496543915782793
1939.5209951163924	0.03981071705534969
1950.5304173321213	0.04731512589614813
1960.79746362033	0.056234132519034905
1970.3783754011085	0.06683439175686148
1979.4510514559042	0.07943282347242821
1987.8686002034406	0.09440608762859228
1995.4757212934878	0.11220184543019629
2001.650990720097	0.1333521432163324
2007.0258992676388	0.1584893192461114
2011.5756616474057	0.18836490894898023
2015.3085828479389	0.22387211385683378
2018.3399909777609	0.26607250597988086
2020.4696342198702	0.3162277660168379
2022.271445719582	0.3758374042884443
2023.751672112134	0.4466835921509634
2024.9022397183542	0.5308844442309879
2025.6902153108676	0.630957344480193
2026.1982081264189	0.7498942093324559
2026.579077578738	0.8912509381337458
2026.82418519395	1.0592537251772898
2026.904550788168	1.2589254117941662
2026.9821031555864	1.4962356560944328
2027.0      	1.7782794100389228
2026.9614188076455	2.1134890398366473
2026.9      	2.511886431509582
2026.9      	2.9853826189179573
2026.8245049193004	3.548133892335753
2026.8      	4.216965034285823
2026.7674980372344	5.011872336272725
2026.6875355373825	5.956621435290109
2026.6082951415779	7.079457843841373
2026.5310509112492	8.413951416451948
2026.5      	10.0        
