# T(K)	P(bar)
2833.7      	1e-08       
2828.1603427038917	1.1885022274370215e-08
2821.8461793160345	1.4125375446227554e-08
2813.5268593657106	1.6788040181225588e-08
2798.2194240507065	1.9952623149688826e-08
2760.2902203804206	2.3713737056616554e-08
2743.444761739993	2.818382931264461e-08
2729.026684456061	3.3496543915782795e-08
2715.646744438704	3.981071705534969e-08
2703.470682983752	4.731512589614813e-08
2690.225409527971	5.6234132519034905e-08
2680.8229535284995	6.683439175686162e-08
2673.9670868404946	7.94328234724282e-08
2669.1201367457384	9.440608762859226e-08
2665.533863139539	1.1220184543019653e-07
2663.2096545916115	1.333521432163324e-07
2661.2787262678576	1.584893192461114e-07
2659.5752401439163	1.883649089489802e-07
2657.9957085760307	2.2387211385683422e-07
2656.4800045111197	2.6607250597988136e-07
2655.086910520087	3.162277660168379e-07
2653.6305967299018	3.7583740428844433e-07
2652.157993465439	4.466835921509635e-07
2650.7364164506334	5.308844442309889e-07
2649.475655502612	6.309573444801942e-07
2648.3044796839526	7.498942093324558e-07
2647.1732284744176	8.912509381337459e-07
2646.182333254451	1.0592537251772896e-06
2645.4408397538155	1.2589254117941687e-06
2644.4326589773764	1.4962356560944327e-06
2643.0636029498055	1.7782794100389227e-06
2641.142564229366	2.1134890398366474e-06
2638.5502807301878	2.511886431509582e-06
2635.259883495655	2.9853826189179636e-06
2631.0477705615167	3.5481338923357534e-06
2625.9551912035	4.216965034285822e-06
2619.7748233510943	5.011872336272725e-06
2612.3413735746913	5.95662143529011e-06
2603.7041704319895	7.079457843841388e-06
2593.8366184623937	8.413951416451948e-06
2582.6218380345767	1e-05       
2569.9789789106076	1.188502227437019e-05
2555.8264013548596	1.4125375446227555e-05
2540.2876833998857	1.678804018122562e-05
2523.098456250487	1.9952623149688786e-05
2503.8751347490183	2.371373705661655e-05
2482.4211621426157	2.818382931264455e-05
2458.6138243368687	3.349654391578279e-05
2433.357131778601	3.981071705534977e-05
2406.7382857118414	4.731512589614803e-05
2378.8324726622786	5.623413251903491e-05
2349.3575152054273	6.683439175686148e-05
2317.423437342328	7.943282347242821e-05
2279.90608836518	9.440608762859246e-05
2231.5356189925087	0.00011220184543019629
2150.5274981183634	0.0001333521432163324
2018.9131050920028	0.00015848931924611142
1863.009698826769	0.00018836490894898024
1809.0892618991152	0.00022387211385683424
1788.0479351940248	0.0002660725059798809
1780.2517338656362	0.0003162277660168379
1777.4033231994404	0.00037583740428844437
1777.4808354399902	0.0004466835921509635
1778.6133606681801	0.0005308844442309889
1780.4464401167577	0.000630957344480193
1782.7816448256676	0.0007498942093324559
1785.5046639640493	0.0008912509381337458
1788.6414935087666	0.0010592537251772895
1792.2559653933993	0.0012589254117941673
1796.4122553098462	0.0014962356560944345
1801.1856790784636	0.0017782794100389225
1806.6407414501718	0.0021134890398366475
1812.3740042274515	0.002511886431509582
1818.4359553872937	0.0029853826189179603
1824.8321032873419	0.0035481338923357567
1831.5975356282079	0.004216965034285822
1838.5402981283878	0.0050118723362727255
1845.8168532561072	0.005956621435290103
1853.5250469170658	0.00707945784384138
1861.6810462955996	0.008413951416451957
1870.3      	0.01        
1879.0711240521716	0.01188502227437019
1888.1605981259756	0.014125375446227554
1897.636814270809	0.016788040181225587
1907.4846780245541	0.01995262314968883
1917.3446806558236	0.023713737056616554
1926.838830600937	0.02818382931264455
1936.2176046602503	0.033496543915782793
1945.373409115359	0.03981071705534969
1954.210175459607	0.04731512589614813
1962.28273857171	0.056234132519034905
1969.6931744893789	0.06683439175686148
1976.6094297349096	0.07943282347242821
1982.9677812068182	0.09440608762859228
1988.736184002453	0.11220184543019629
1993.5220178080751	0.1333521432163324
1997.608754832528	0.1584893192461114
2001.0770437265596	0.18836490894898023
2003.964444805006	0.22387211385683378
2006.2778878514491	0.26607250597988086
2008.0048871421163	0.3162277660168379
2009.314297146388	0.3758374042884443
2010.3011147414227	0.4466835921509634
2011.071567802848	0.5308844442309879
2011.6231507176074	0.630957344480193
2011.8991040632095	0.7498942093324559
2012.089538789369	0.8912509381337458
2012.2      	1.0592537251772898
2012.2      	1.2589254117941662
2012.2      	1.4962356560944328
2012.2      	1.7782794100389228
2012.2      	2.1134890398366473
2012.2      	2.511886431509582
2012.2      	2.9853826189179573
2012.1245049193003	3.548133892335753
2012.1      	4.216965034285823
2012.0674980372344	5.011872336272725
2011.9875355373824	5.956621435290109
2011.908295141578	7.079457843841373
2011.8310509112491	8.413951416451948
2011.7      	10.0        
