# T(K)	P(bar)
2921.8      	1e-08       
2918.7993522979414	1.1885022274370215e-08
2915.326710915925	1.4125375446227554e-08
2911.3838376372055	1.6788040181225588e-08
2903.5339604862097	1.9952623149688826e-08
2878.5658893070276	2.3713737056616554e-08
2861.580542627661	2.818382931264461e-08
2846.0452331346796	3.3496543915782795e-08
2831.0222747335843	3.981071705534969e-08
2813.692961917964	4.731512589614813e-08
2775.759752730994	5.6234132519034905e-08
2752.5868915664983	6.683439175686162e-08
2736.688527961734	7.94328234724282e-08
2725.49187766774	9.440608762859226e-08
2717.0500897829547	1.1220184543019653e-07
2711.781883740987	1.333521432163324e-07
2707.872345903728	1.584893192461114e-07
2704.8403842302655	1.883649089489802e-07
2702.335555194994	2.2387211385683422e-07
2700.022112148551	2.6607250597988136e-07
2697.565618702376	3.162277660168379e-07
2695.271405707224	3.7583740428844433e-07
2693.1171016723015	4.466835921509635e-07
2691.0852965914564	5.308844442309889e-07
2689.430547847178	6.309573444801942e-07
2687.9390075996735	7.498942093324558e-07
2686.628459079733	8.912509381337459e-07
2685.3888517028518	1.0592537251772896e-06
2684.0408397538154	1.2589254117941687e-06
2683.0326589773767	1.4962356560944327e-06
2682.022465176183	1.7782794100389227e-06
2680.844119729974	2.1134890398366474e-06
2679.39771161132	2.511886431509582e-06
2677.6321326074244	2.9853826189179636e-06
2675.4861377404086	3.5481338923357534e-06
2672.9275956017505	4.216965034285822e-06
2669.8374116755476	5.011872336272725e-06
2666.1144545560373	5.95662143529011e-06
2661.7562327867836	7.079457843841388e-06
2656.680411053695	8.413951416451948e-06
2650.963694267516	1e-05       
2644.589489455304	1.188502227437019e-05
2637.5373594475705	1.4125375446227555e-05
2630.0412945044673	1.678804018122562e-05
2621.968442125778	1.9952623149688786e-05
2613.4388504105023	2.371373705661655e-05
2604.4684648570465	2.818382931264455e-05
2594.9492973021925	3.349654391578279e-05
2585.0930270355516	3.981071705534977e-05
2574.5601827903	4.731512589614803e-05
2563.0060723977285	5.623413251903491e-05
2549.9250821692094	6.683439175686148e-05
2534.4756779162385	7.943282347242821e-05
2516.4331499848836	9.440608762859246e-05
2495.755033794061	0.00011220184543019629
2471.864285315186	0.0001333521432163324
2444.114457008061	0.00015848931924611142
2412.509227901342	0.00018836490894898024
2377.573631344305	0.00022387211385683424
2339.0039227261045	0.0002660725059798809
2296.6174857497526	0.0003162277660168379
2250.236293147567	0.00037583740428844437
2202.1011917661394	0.0004466835921509635
2151.2323766137015	0.0005308844442309889
2097.6511156650004	0.000630957344480193
2041.1011706307809	0.0007498942093324559
1980.7142167972552	0.0008912509381337458
1912.7998843347334	0.0010592537251772895
1837.580953273887	0.0012589254117941673
1764.915832848646	0.0014962356560944345
1706.3641649682831	0.0017782794100389225
1676.95426348603	0.0021134890398366475
1663.657911883293	0.002511886431509582
1656.836836668319	0.0029853826189179603
1654.452293091953	0.0035481338923357567
1655.0732989266792	0.004216965034285822
1657.4915645166295	0.0050118723362727255
1660.5104314052671	0.005956621435290103
1663.6542260372828	0.00707945784384138
1666.6223689856	0.008413951416451957
1669.2      	0.01        
1671.1234921167043	0.01188502227437019
1672.7950166315213	0.014125375446227554
1674.372652726961	0.016788040181225587
1675.9988944882275	0.01995262314968883
1677.7482497937751	0.023713737056616554
1680.0772662490167	0.02818382931264455
1682.986625348053	0.033496543915782793
1686.5951720020664	0.03981071705534969
1691.0742020247699	0.04731512589614813
1696.795533162474	0.056234132519034905
1703.9844460156355	0.06683439175686148
1712.193333741867	0.07943282347242821
1721.1040949831124	0.09440608762859228
1730.3504028432203	0.11220184543019629
1739.1501617761382	0.1333521432163324
1747.805367991389	0.1584893192461114
1756.2325132588323	0.18836490894898023
1764.3855184722618	0.22387211385683378
1772.2831343894295	0.26607250597988086
1779.3383968151174	0.3162277660168379
1786.0857828783285	0.3758374042884443
1792.6089179313808	0.4466835921509634
1799.017917746834	0.5308844442309879
1805.3217224869413	0.630957344480193
1811.4430736645159	0.7498942093324559
1817.7263209694431	0.8912509381337458
1824.2557414857426	1.0592537251772898
1831.0595122652742	1.2589254117941662
1837.1861492913267	1.4962356560944328
1842.906346716527	1.7782794100389228
1848.269196310686	2.1134890398366473
1853.2057209716995	2.511886431509582
1857.6196684814386	2.9853826189179573
1861.0217835507865	3.548133892335753
1863.8654098612071	4.216965034285823
1866.1475451436092	5.011872336272725
1867.8869669392627	5.956621435290109
1869.0755728763318	7.079457843841373
1869.8894908875081	8.413951416451948
1870.6      	10.0        
