# T(K)	P(bar)
904.2       	1e-08       
916.4334098622394	1.1885022274370215e-08
926.8891031154319	1.4125375446227554e-08
936.2668552709807	1.6788040181225588e-08
945.1265418756307	1.9952623149688826e-08
953.4757376521087	2.3713737056616554e-08
961.5043770934752	2.818382931264461e-08
969.5907905085236	3.3496543915782795e-08
977.7795905224986	3.981071705534969e-08
986.118041240768	4.731512589614813e-08
994.2689787520179	5.6234132519034905e-08
1002.3945034189871	6.683439175686162e-08
1010.6396400260904	7.94328234724282e-08
1019.0298970712438	9.440608762859226e-08
1027.6380926976603	1.1220184543019653e-07
1036.0052434701975	1.333521432163324e-07
1044.5191352406812	1.584893192461114e-07
1053.2224172012661	1.883649089489802e-07
1062.1257485438168	2.2387211385683422e-07
1071.2199729332826	2.6607250597988136e-07
1080.0162333727847	3.162277660168379e-07
1088.9164196205886	3.7583740428844433e-07
1097.8724851039333	4.466835921509635e-07
1106.8450848455675	5.308844442309889e-07
1115.670411481718	6.309573444801942e-07
1124.33321835982	7.498942093324558e-07
1133.2037109940309	8.912509381337459e-07
1142.35385288609	1.0592537251772896e-06
1151.8597469446674	1.2589254117941687e-06
1161.398688137129	1.4962356560944327e-06
1171.255727496048	1.7782794100389227e-06
1181.4927173907902	2.1134890398366474e-06
1192.086873675475	2.511886431509582e-06
1203.0013620631937	2.9853826189179636e-06
1213.4673309751583	3.5481338923357534e-06
1224.236120324478	4.216965034285822e-06
1235.3152787127176	5.011872336272725e-06
1246.707347079539	5.95662143529011e-06
1258.197204471207	7.079457843841388e-06
1269.673414223872	8.413951416451948e-06
1281.5253867151955	1e-05       
1293.7429844249725	1.188502227437019e-05
1306.2905959092068	1.4125375446227555e-05
1318.6278694613973	1.678804018122562e-05
1331.1350224115467	1.9952623149688786e-05
1344.0622701031184	2.371373705661655e-05
1357.4236653342805	2.818382931264455e-05
1371.2060388446585	3.349654391578279e-05
1384.6814083498318	3.981071705534977e-05
1398.5393281198283	4.731512589614803e-05
1412.7687568383021	5.623413251903491e-05
1427.3711836822572	6.683439175686148e-05
1442.2631352044505	7.943282347242821e-05
1457.1168862992297	9.440608762859246e-05
1472.361476344157	0.00011220184543019629
1487.9567859478764	0.0001333521432163324
1503.8749329736215	0.00015848931924611142
1519.5203075811764	0.00018836490894898024
1535.14157927924	0.00022387211385683424
1551.1636207319584	0.0002660725059798809
1567.6374095770475	0.0003162277660168379
1584.6111646802267	0.00037583740428844437
1601.1987841578841	0.0004466835921509635
1618.1329466490215	0.0005308844442309889
1635.6462666566856	0.000630957344480193
1653.8030849766542	0.0007498942093324559
1672.543863752576	0.0008912509381337458
1691.3747782840928	0.0010592537251772895
1711.1057776755845	0.0012589254117941673
1732.0863271747803	0.0014962356560944345
1754.627382646631	0.0017782794100389225
1778.4241040072714	0.0021134890398366475
1803.28735165229	0.002511886431509582
1829.9086631082628	0.0029853826189179603
1858.1914073371013	0.0035481338923357567
1887.969031727468	0.004216965034285822
1918.2363558855561	0.0050118723362727255
1949.5206239498482	0.005956621435290103
1982.197226661741	0.00707945784384138
2016.0825322747992	0.008413951416451957
2050.8      	0.01        
2084.114883461318	0.01188502227437019
2117.5881067461314	0.014125375446227554
2151.3611357206137	0.016788040181225587
2185.4061675025223	0.01995262314968883
2218.8029506084345	0.023713737056616554
2250.5663363982526	0.02818382931264455
2282.181710712713	0.033496543915782793
2313.543087718552	0.03981071705534969
2344.533936373139	0.04731512589614813
2373.7675872548334	0.056234132519034905
2401.597554449137	0.06683439175686148
2428.749130369452	0.07943282347242821
2455.1896912137313	0.09440608762859228
2480.976526979929	0.11220184543019629
2504.7513142723737	0.1333521432163324
2528.1818151039447	0.1584893192461114
2551.5177318916303	0.18836490894898023
2574.8124173738524	0.22387211385683378
2597.787300041977	0.26607250597988086
2619.717634016411	0.3162277660168379
2641.6349217030197	0.3758374042884443
2663.4602094925526	0.4466835921509634
2685.099128564552	0.5308844442309879
2705.9016842069063	0.630957344480193
2725.6574773517345	0.7498942093324559
2745.1237323030136	0.8912509381337458
2764.25933538428	1.0592537251772898
2783.0284781259743	1.2589254117941662
2800.5553131625297	1.4962356560944328
2817.6386608917064	1.7782794100389228
2834.42488800973	2.1134890398366473
2850.820595498118	2.511886431509582
2866.710806533179	2.9853826189179573
2880.966589929443	3.548133892335753
2894.701530185685	4.216965034285823
2907.7703061914362	5.011872336272725
2920.0948826169215	5.956621435290109
2931.5054996127847	7.079457843841373
2942.7665669576195	8.413951416451948
2955.3      	10.0        
