# T(K)	P(bar)
2702.1      	1e-08       
2684.8655106343294	1.1885022274370215e-08
2678.933488357935	1.4125375446227554e-08
2677.2237556368627	1.6788040181225588e-08
2674.7467610593676	1.9952623149688826e-08
2672.679341152811	2.3713737056616554e-08
2670.6739057266313	2.818382931264461e-08
2668.7370973572374	3.3496543915782795e-08
2666.7801023693755	3.981071705534969e-08
2664.6718923463245	4.731512589614813e-08
2662.399034771072	5.6234132519034905e-08
2659.896013211175	6.683439175686162e-08
2657.008708561489	7.94328234724282e-08
2653.676587267771	9.440608762859226e-08
2649.874339965124	1.1220184543019653e-07
2645.4583437240626	1.333521432163324e-07
2640.393625487579	1.584893192461114e-07
2634.5647225828598	1.883649089489802e-07
2627.8785428801525	2.2387211385683422e-07
2620.300022555598	2.6607250597988136e-07
2611.656716042766	3.162277660168379e-07
2601.8141771093133	3.7583740428844433e-07
2590.662832982092	4.466835921509635e-07
2578.0801330132945	5.308844442309889e-07
2564.0541674665556	6.309573444801942e-07
2548.3618196385473	7.498942093324558e-07
2530.4762676969863	8.912509381337459e-07
2509.986293754525	1.0592537251772896e-06
2486.4891383282143	1.2589254117941687e-06
2460.74175234531	1.4962356560944327e-06
2432.012248625045	1.7782794100389227e-06
2399.8786001334506	2.1134890398366474e-06
2363.3902211641375	2.511886431509582e-06
2320.7755642973834	2.9853826189179636e-06
2296.974000386593	3.5481338923357534e-06
1319.5410244380482	4.216965034285822e-06
600.3624859880642	5.011872336272725e-06
853.2878645324615	5.95662143529011e-06
824.6028412511939	7.079457843841388e-06
828.9775524963376	8.413951416451948e-06
835.2751592356688	1e-05       
840.5652618426152	1.188502227437019e-05
846.5522004603579	1.4125375446227555e-05
852.7989212462771	1.678804018122562e-05
859.2551968059872	1.9952623149688786e-05
866.0160465214037	2.371373705661655e-05
873.116379392328	2.818382931264455e-05
880.6142043881821	3.349654391578279e-05
888.0834091996211	3.981071705534977e-05
895.9207344593435	4.731512589614803e-05
904.1442691302105	5.623413251903491e-05
912.7893847046917	6.683439175686148e-05
921.8679006059217	7.943282347242821e-05
931.1624002186882	9.440608762859246e-05
941.1242520463499	0.00011220184543019629
951.7500001643351	0.0001333521432163324
963.0557276984446	0.00015848931924611142
975.005963579592	0.00018836490894898024
987.5694009989869	0.00022387211385683424
1000.9582390719644	0.0002660725059798809
1015.2559612305166	0.0003162277660168379
1030.5812558852638	0.00037583740428844437
1046.4712651979733	0.0004466835921509635
1063.2915445789258	0.0005308844442309889
1081.0705038245624	0.000630957344480193
1099.6886209804288	0.0007498942093324559
1118.829843747289	0.0008912509381337458
1137.6005955155863	0.0010592537251772895
1156.7319895260457	0.0012589254117941673
1176.1239706138358	0.0014962356560944345
1195.6669567545894	0.0017782794100389225
1214.8782633679966	0.0021134890398366475
1233.639773696943	0.002511886431509582
1253.0061879344735	0.0029853826189179603
1273.0739851359708	0.0035481338923357567
1293.9205583244106	0.004216965034285822
1315.1388886620393	0.0050118723362727255
1337.6016300767944	0.005956621435290103
1361.8721797446753	0.00707945784384138
1388.2627530263992	0.008413951416451957
1417.1      	0.01        
1448.106692921273	0.01188502227437019
1482.7496350197175	0.014125375446227554
1522.097052082379	0.016788040181225587
1567.5162818909346	0.01995262314968883
1620.8716187101418	0.023713737056616554
1689.2025963825188	0.02818382931264455
1769.935792950996	0.033496543915782793
1859.8276538230123	0.03981071705534969
1951.7499405522096	0.04731512589614813
2016.0169478524483	0.056234132519034905
2018.5015097921885	0.06683439175686148
2005.9314708126649	0.07943282347242821
1994.6201367457386	0.09440608762859228
1991.1571094203834	0.11220184543019629
1993.1640719840316	0.1333521432163324
1997.196613158861	0.1584893192461114
2002.517849460315	0.18836490894898023
2008.4691196815668	0.22387211385683378
2014.2926142467509	0.26607250597988086
2017.7368248686819	0.3162277660168379
2019.4612334721621	0.3758374042884443
2019.9397770517155	0.4466835921509634
2019.6261924787977	0.5308844442309879
2018.286633971525	0.630957344480193
2015.445279157207	0.7498942093324559
2011.9958384498293	0.8912509381337458
2008.2149254964543	1.0592537251772898
2004.0403703950292	1.2589254117941662
1996.207581285772	1.4962356560944328
1987.820859183084	1.7782794100389228
1979.3103936104262	2.1134890398366473
1971.0811314301864	2.511886431509582
1963.5372938680869	2.9853826189179573
1957.8133640282226	3.548133892335753
1953.111147499843	4.216965034285823
1949.6899450425626	5.011872336272725
1947.7376776869123	5.956621435290109
1947.3414757078895	7.079457843841373
1950.1958617275343	8.413951416451948
1955.9      	10.0        
