# T(K)	P(bar)
892.2       	1e-08       
900.5094859441626	1.1885022274370215e-08
908.2013289997261	1.4125375446227554e-08
915.4933046349757	1.6788040181225588e-08
922.5412335005044	1.9952623149688826e-08
929.2205901216869	2.3713737056616554e-08
935.6996891908839	2.818382931264461e-08
942.3186135264515	3.3496543915782795e-08
949.1365765959604	3.981071705534969e-08
956.2157860856721	4.731512589614813e-08
963.3478564080157	5.6234132519034905e-08
970.593174489379	6.683439175686162e-08
978.0590994524256	7.94328234724282e-08
985.7339244203914	9.440608762859226e-08
993.6226607635525	1.1220184543019653e-07
1001.4474962082402	1.333521432163324e-07
1009.3595617686316	1.584893192461114e-07
1017.5049892444409	1.883649089489802e-07
1025.929656515195	2.2387211385683422e-07
1034.5452375157413	2.6607250597988136e-07
1043.0973851261324	3.162277660168379e-07
1051.9164196205886	3.7583740428844433e-07
1060.96281952636	4.466835921509635e-07
1070.1859807329092	5.308844442309889e-07
1079.326497606065	6.309573444801942e-07
1088.2323224230292	7.498942093324558e-07
1097.2037109940309	8.912509381337459e-07
1106.2329269163404	1.0592537251772896e-06
1115.3187898511553	1.2589254117941687e-06
1124.1597597368514	1.4962356560944327e-06
1133.1978134143565	1.7782794100389227e-06
1142.568324274891	2.1134890398366474e-06
1152.3223011528335	2.511886431509582e-06
1162.5145072207765	2.9853826189179636e-06
1172.5898555716599	3.5481338923357534e-06
1183.1291257874352	4.216965034285822e-06
1194.0177728244207	5.011872336272725e-06
1205.157489229069	5.95662143529011e-06
1216.3303850375185	7.079457843841388e-06
1227.359719691367	8.413951416451948e-06
1238.7420382165606	1e-05       
1250.4836388701658	1.188502227437019e-05
1262.5560833804345	1.4125375446227555e-05
1274.5029368835048	1.678804018122562e-05
1286.622213077857	1.9952623149688786e-05
1299.0335386011727	2.371373705661655e-05
1311.738209264055	2.818382931264455e-05
1324.7954425612188	3.349654391578279e-05
1337.5777930632692	3.981071705534977e-05
1350.7906430641935	4.731512589614803e-05
1364.4238046522134	5.623413251903491e-05
1378.4526303696473	6.683439175686148e-05
1392.7074930566666	7.943282347242821e-05
1406.6578052858063	9.440608762859246e-05
1421.0136383860665	0.00011220184543019629
1435.8253573670572	0.0001333521432163324
1451.1392559289256	0.00015848931924611142
1466.4701506448716	0.00018836490894898024
1481.7813499865817	0.00022387211385683424
1497.4025443999597	0.0002660725059798809
1513.3081484596519	0.0003162277660168379
1529.4812558852636	0.00037583740428844437
1545.3712651979731	0.0004466835921509635
1561.5469673499795	0.0005308844442309889
1578.1604194596198	0.000630957344480193
1595.2635841660851	0.0007498942093324559
1612.8831197673792	0.0008912509381337458
1630.1911229139628	0.0010592537251772895
1648.10171369936	0.0012589254117941673
1666.8239706138359	0.0014962356560944345
1686.4922099410107	0.0017782794100389225
1706.5731641788934	0.0021134890398366475
1727.2664152188256	0.002511886431509582
1749.5312770109408	0.0029853826189179603
1773.4969160555008	0.0035481338923357567
1799.2174687693853	0.004216965034285822
1825.9744073936745	0.0050118723362727255
1854.0101925445808	0.005956621435290103
1883.5828525741324	0.00707945784384138
1914.676857473999	0.008413951416451957
1947.3      	0.01        
1979.9993659839727	0.01188502227437019
2013.780864230316	0.014125375446227554
2048.4992579021823	0.016788040181225587
2083.8778897645475	0.01995262314968883
2118.864995875503	0.023713737056616554
2152.7328994618806	0.02818382931264455
2186.7807018465114	0.033496543915782793
2220.839869053263	0.03981071705534969
2254.764299181911	0.04731512589614813
2287.2896748277635	0.056234132519034905
2318.694141693826	0.06683439175686148
2349.747809239516	0.07943282347242821
2380.2784281629106	0.09440608762859228
2410.073173691347	0.11220184543019629
2437.244359168427	0.1333521432163324
2463.5880685557504	0.1584893192461114
2489.251205726127	0.18836490894898023
2514.284678121615	0.22387211385683378
2538.6157170583433	0.26607250597988086
2561.638925834121	0.3162277660168379
2584.5471763999235	0.3758374042884443
2607.4118816046866	0.4466835921509634
2630.2627121139185	0.5308844442309879
2652.3260287042945	0.630957344480193
2673.3193656888516	0.7498942093324559
2694.0400426179654	0.8912509381337458
2714.3737429056287	1.0592537251772898
2734.1694352194863	1.2589254117941662
2752.3942415628076	1.4962356560944328
2769.818092004895	1.7782794100389228
2786.8406315867933	2.1134890398366473
2803.4388813339674	2.511886431509582
2819.409345960114	2.9853826189179573
2833.817580090843	3.548133892335753
2847.7620219912496	4.216965034285823
2861.1003140424987	5.011872336272725
2873.732276004774	5.956621435290109
2885.380614188051	7.079457843841373
2896.7355160463703	8.413951416451948
2909.3      	10.0        
