# T(K)	P(bar)
838.5       	1e-08       
840.0387936933635	1.1885022274370215e-08
841.6497674630973	1.4125375446227554e-08
843.373550636005	1.6788040181225588e-08
845.2124806013286	1.9952623149688826e-08
847.0413520571286	2.3713737056616554e-08
848.9558598782393	2.818382931264461e-08
850.9598111963263	3.3496543915782795e-08
853.0475860010332	3.981071705534969e-08
855.235973434837	4.731512589614813e-08
857.5872054092359	5.6234132519034905e-08
860.1677439642434	6.683439175686162e-08
862.9221622946595	7.94328234724282e-08
865.892764298327	9.440608762859226e-08
869.1970007286764	1.1220184543019653e-07
872.6058399323026	1.333521432163324e-07
876.2574408322972	1.584893192461114e-07
880.1481376330141	1.883649089489802e-07
884.2808435957011	2.2387211385683422e-07
888.6684079941275	2.6607250597988136e-07
893.0581166863924	3.162277660168379e-07
897.7122947092623	3.7583740428844433e-07
902.6271343451048	4.466835921509635e-07
907.7952300848088	5.308844442309889e-07
913.1534641139001	6.309573444801942e-07
918.678497517027	7.498942093324558e-07
924.4577046013362	8.912509381337459e-07
930.4864451280934	1.0592537251772896e-06
936.7686138416103	1.2589254117941687e-06
943.0503556024997	1.4962356560944327e-06
949.4044504271558	1.7782794100389227e-06
955.9408201577755	2.1134890398366474e-06
962.672581883021	2.511886431509582e-06
969.5743907164314	2.9853826189179636e-06
976.3435671015731	3.5481338923357534e-06
983.3682514354497	4.216965034285822e-06
990.6876864627336	5.011872336272725e-06
998.3339817991334	5.95662143529011e-06
1006.1787809837895	7.079457843841388e-06
1014.1017561413342	8.413951416451948e-06
1022.4002729754321	1e-05       
1031.1010079488583	1.188502227437019e-05
1040.214495679028	1.4125375446227555e-05
1049.4284088382587	1.678804018122562e-05
1058.769985875291	1.9952623149688786e-05
1068.3953382801599	2.371373705661655e-05
1078.296384983154	2.818382931264455e-05
1088.4495253329806	3.349654391578279e-05
1098.2287934881635	3.981071705534977e-05
1108.1228752582022	4.731512589614803e-05
1118.2491120273587	5.623413251903491e-05
1128.6857679862164	6.683439175686148e-05
1139.3570059753815	7.943282347242821e-05
1150.0510217388235	9.440608762859246e-05
1161.0720900044403	0.00011220184543019629
1172.394643027347	0.0001333521432163324
1184.0111313925747	0.00015848931924611142
1195.5682674092109	0.00018836490894898024
1206.898369182025	0.00022387211385683424
1218.48339557797	0.0002660725059798809
1230.453547319632	0.0003162277660168379
1242.9350351098901	0.00037583740428844437
1255.4145058384083	0.0004466835921509635
1268.2858542940028	0.0005308844442309889
1281.7402507297345	0.000630957344480193
1295.7621889351328	0.0007498942093324559
1310.0980838107312	0.0008912509381337458
1324.1754466366897	0.0010592537251772895
1338.7065611012058	0.0012589254117941673
1353.667944210011	0.0014962356560944345
1368.9862374357247	0.0017782794100389225
1384.1655414265651	0.0021134890398366475
1398.786490653178	0.002511886431509582
1413.552653326724	0.0029853826189179603
1428.446468032535	0.0035481338923357567
1443.4453838480324	0.004216965034285822
1458.032985955152	0.0050118723362727255
1472.5500164093896	0.005956621435290103
1487.4117223877183	0.00707945784384138
1502.6925610059996	0.008413951416451957
1518.4      	0.01        
1533.9418163029704	0.01188502227437019
1550.3166779572775	0.014125375446227554
1567.6346084510055	0.016788040181225587
1585.9063226918936	0.01995262314968883
1604.672134151406	0.023713737056616554
1623.8585987823922	0.02818382931264455
1644.0919290703905	0.033496543915782793
1665.2312367511502	0.03981071705534969
1687.078821381661	0.04731512589614813
1708.7885299452782	0.056234132519034905
1731.025823696069	0.06683439175686148
1754.1846857888297	0.07943282347242821
1778.3154933018625	0.09440608762859228
1803.5270468518065	0.11220184543019629
1829.0772241044017	0.1333521432163324
1856.1344990996392	0.1584893192461114
1884.7530093087703	0.18836490894898023
1914.8619971985293	0.22387211385683378
1946.0535913764338	0.26607250597988086
1977.755159206906	0.3162277660168379
2010.5329992906102	0.3758374042884443
2044.0070420880338	0.4466835921509634
2077.7327243398654	0.5308844442309879
2110.3549138699213	0.630957344480193
2141.447208427928	0.7498942093324559
2171.957139374788	0.8912509381337458
2201.9485217614683	1.0592537251772898
2231.6564868931623	1.2589254117941662
2259.8855486334555	1.4962356560944328
2288.1111646958234	1.7782794100389228
2316.627810439964	2.1134890398366473
2345.3829009056694	2.511886431509582
2374.274193696689	2.9853826189179573
2401.676248729091	3.548133892335753
2429.284535788063	4.216965034285823
2457.2056948190284	5.011872336272725
2485.6869222432433	5.956621435290109
2514.8473878993386	7.079457843841373
2549.202886292872	8.413951416451948
2593.9      	10.0        
