# T(K)	P(bar)
2276.0      	1e-08       
2268.6907299565237	1.1885022274370215e-08
2263.5434550948926	1.4125375446227554e-08
2259.788327182426	1.6788040181225588e-08
2256.7788304938613	1.9952623149688826e-08
2254.313829836044	2.3713737056616554e-08
2252.2036713315015	2.818382931264461e-08
2250.140188803674	3.3496543915782795e-08
2248.1077907397844	3.981071705534969e-08
2246.1033554709693	4.731512589614813e-08
2244.1439954923035	5.6234132519034905e-08
2242.206070614527	6.683439175686162e-08
2240.200660564968	7.94328234724282e-08
2238.0903073084596	9.440608762859226e-08
2235.840476825585	1.1220184543019653e-07
2233.7486891324506	1.333521432163324e-07
2231.5340461638207	1.584893192461114e-07
2229.2853362014826	1.883649089489802e-07
2227.035555194994	2.2387211385683422e-07
2224.722112148551	2.6607250597988136e-07
2222.4115175334778	3.162277660168379e-07
2220.06936325774	3.7583740428844433e-07
2217.6063213533052	4.466835921509635e-07
2214.962608929431	5.308844442309889e-07
2212.3622894741366	6.309573444801942e-07
2209.544383220417	7.498942093324558e-07
2206.5539936073055	8.912509381337459e-07
2203.4325922420035	1.0592537251772896e-06
2200.2088668969427	1.2589254117941687e-06
2196.9516674653705	1.4962356560944327e-06
2193.5085333021707	1.7782794100389227e-06
2189.8866839593397	2.1134890398366474e-06
2186.085708207546	2.511886431509582e-06
2182.0730286532375	2.9853826189179636e-06
2177.998760722916	3.5481338923357534e-06
2173.7041529628	4.216965034285822e-06
2169.1498822340627	5.011872336272725e-06
2164.314738855097	5.95662143529011e-06
2159.3225939194067	7.079457843841388e-06
2154.180411053695	8.413951416451948e-06
2148.747042766151	1e-05       
2143.008180564917	1.188502227437019e-05
2136.947799539642	1.4125375446227555e-05
2130.701078753723	1.678804018122562e-05
2124.3073650607507	1.9952623149688786e-05
2117.542862040853	2.371373705661655e-05
2110.3630143776472	2.818382931264455e-05
2102.783440882165	3.349654391578279e-05
2095.1602318478094	3.981071705534977e-05
2087.054923012839	4.731512589614803e-05
2078.3407923448185	5.623413251903491e-05
2068.94760449047	6.683439175686148e-05
2058.9930914408756	7.943282347242821e-05
2048.4921584300805	9.440608762859246e-05
2037.1294823896756	0.00011220184543019629
2024.826785520605	0.0001333521432163324
2011.458855943988	0.00015848931924611142
1996.9927809299675	0.00018836490894898024
1980.84279016595	0.00022387211385683424
1962.0431795580528	0.0002660725059798809
1939.6885309024656	0.0003162277660168379
1912.6344690468227	0.00037583740428844437
1878.4515709643601	0.0004466835921509635
1828.6298614876291	0.0005308844442309889
1752.9455333882288	0.000630957344480193
1634.076932589672	0.0007498942093324559
1442.023994535568	0.0008912509381337458
1410.8196863928545	0.0010592537251772895
1409.1854577944634	0.0012589254117941673
1420.9367659295388	0.0014962356560944345
1434.938210942681	0.0017782794100389225
1449.0897495591414	0.0021134890398366475
1462.9099567561843	0.002511886431509582
1477.4907275819376	0.0029853826189179603
1493.942488042104	0.0035481338923357567
1513.5485097641974	0.004216965034285822
1535.156882938915	0.0050118723362727255
1557.3342498711456	0.005956621435290103
1582.089514838806	0.00707945784384138
1611.332614829199	0.008413951416451957
1647.5      	0.01        
1680.9687628306544	0.01188502227437019
1721.3867115247153	0.014125375446227554
1759.9530545392167	0.016788040181225587
1792.0023758060038	0.01995262314968883
1824.2064166581333	0.023713737056616554
1847.5786777729636	0.02818382931264455
1865.2640412046296	0.033496543915782793
1879.0086323021133	0.03981071705534969
1891.4551695148277	0.04731512589614813
1905.9544333569547	0.056234132519034905
1920.1038059262441	0.06683439175686148
1932.9577783224895	0.07943282347242821
1944.613787674653	0.09440608762859228
1956.1141018121098	0.11220184543019629
1967.1523959121735	0.1333521432163324
1978.0103707528335	0.1584893192461114
1988.7558910357627	0.18836490894898023
1999.62222402503	0.22387211385683378
2011.189439257245	0.26607250597988086
2022.1588170082055	0.3162277660168379
2032.4796955422346	0.3758374042884443
2042.1929310005023	0.4466835921509634
2051.475756761074	0.5308844442309879
2060.5374760749783	0.630957344480193
2069.2995863808897	0.7498942093324559
2078.024633415293	0.8912509381337458
2086.7603713344906	1.0592537251772898
2095.605137486651	1.2589254117941662
2104.213450270092	1.4962356560944328
2112.838951187979	1.7782794100389228
2121.5053499666374	2.1134890398366473
2130.266299450946	2.511886431509582
2139.334955243683	2.9853826189179573
2147.7289637962667	3.548133892335753
2155.856721389185	4.216965034285823
2163.6876864627334	5.011872336272725
2171.2467305608106	5.956621435290109
2178.5368469748346	7.079457843841373
2185.5743670763245	8.413951416451948
2193.1      	10.0        
