# T(K)	P(bar)
834.9       	1e-08       
837.2081905400452	1.1885022274370215e-08
839.3782724525537	1.4125375446227554e-08
841.5080811813971	1.6788040181225588e-08
843.6668250537335	1.9952623149688826e-08
845.8137611105423	2.3713737056616554e-08
848.0367974587575	2.818382931264461e-08
850.4020825802352	3.3496543915782795e-08
852.9414045938937	3.981071705534969e-08
855.6988996841268	4.731512589614813e-08
858.6771268516989	5.6234132519034905e-08
861.750287016757	6.683439175686162e-08
865.018138296399	7.94328234724282e-08
868.4798632542614	9.440608762859226e-08
872.1058189767379	1.1220184543019653e-07
875.824552653421	1.333521432163324e-07
879.6723342003096	1.584893192461114e-07
883.6843756258183	1.883649089489802e-07
887.8648282575974	2.2387211385683422e-07
892.1726187578706	2.6607250597988136e-07
896.5581166863924	3.162277660168379e-07
901.1612734845204	3.7583740428844433e-07
905.9669113968201	4.466835921509635e-07
910.9645581693026	5.308844442309889e-07
916.0863995206398	6.309573444801942e-07
921.1802893906081	7.498942093324558e-07
926.4443188385449	8.912509381337459e-07
931.8204079946443	1.0592537251772896e-06
937.214004383594	1.2589254117941687e-06
942.5651177354626	1.4962356560944327e-06
947.9867259744011	1.7782794100389227e-06
953.6164270418764	2.1134890398366474e-06
959.4714376886811	2.511886431509582e-06
965.4904570201436	2.9853826189179636e-06
971.5641113752758	3.5481338923357534e-06
977.9937705557996	4.216965034285822e-06
984.7926746861399	5.011872336272725e-06
991.9467305608108	5.95662143529011e-06
999.2368469748347	7.079457843841388e-06
1006.4812143425769	8.413951416451948e-06
1014.028025477707	1e-05       
1021.8557592467773	1.188502227437019e-05
1029.9109580927109	1.4125375446227555e-05
1037.9536111045818	1.678804018122562e-05
1046.131557874222	1.9952623149688786e-05
1054.4967838385248	2.371373705661655e-05
1063.0666853027533	2.818382931264455e-05
1071.9318648605813	3.349654391578279e-05
1080.5561013438924	3.981071705534977e-05
1089.3937620427957	4.731512589614803e-05
1098.3542281468578	5.623413251903491e-05
1107.4042038687678	6.683439175686148e-05
1116.5623558743948	7.943282347242821e-05
1125.5760398808802	9.440608762859246e-05
1134.727003736053	0.00011220184543019629
1144.0135715670824	0.0001333521432163324
1153.4524728185295	0.00015848931924611142
1162.7296296209993	0.00018836490894898024
1171.941821456582	0.00022387211385683424
1181.3650393619755	0.0002660725059798809
1191.0657639674453	0.0003162277660168379
1201.12536952836	0.00037583740428844437
1211.0469363187344	0.0004466835921509635
1221.410720537068	0.0005308844442309889
1232.1948277224749	0.000630957344480193
1243.3634369087104	0.0007498942093324559
1254.896223847739	0.0008912509381337458
1265.9081358964295	0.0010592537251772895
1277.0592459440022	0.0012589254117941673
1288.2744093685944	0.0014962356560944345
1299.459971503616	0.0017782794100389225
1310.2910373720804	0.0021134890398366475
1320.6655542197134	0.002511886431509582
1331.1212919811398	0.0029853826189179603
1341.6250658409738	0.0035481338923357567
1352.1155568585461	0.004216965034285822
1362.1006534880187	0.0050118723362727255
1372.0986744214506	0.005956621435290103
1382.3206054072832	0.00707945784384138
1392.7867210963998	0.008413951416451957
1403.5      	0.01        
1413.963797114871	0.01188502227437019
1424.819867252225	0.014125375446227554
1436.00946699777	0.016788040181225587
1447.456400286579	0.01995262314968883
1458.9067259228918	0.023713737056616554
1470.013752898658	0.02818382931264455
1481.2289615797947	0.033496543915782793
1492.5317485980268	0.03981071705534969
1503.9012093625724	0.04731512589614813
1514.8736252431008	0.056234132519034905
1525.853518909487	0.06683439175686148
1537.1309314646012	0.07943282347242821
1548.7444361085543	0.09440608762859228
1560.751442586976	0.11220184543019629
1573.101981440194	0.1333521432163324
1586.5459103134167	0.1584893192461114
1601.2751225752313	0.18836490894898023
1617.4554050590116	0.22387211385683378
1635.1652104490236	0.26607250597988086
1654.483252718787	0.3162277660168379
1675.4328792535355	0.3758374042884443
1698.0334422426781	0.4466835921509634
1722.2716709873355	0.5308844442309879
1747.4868899477651	0.630957344480193
1773.2332870583898	0.7498942093324559
1800.1245187448844	0.8912509381337458
1828.2034105977689	1.0592537251772898
1857.5566042328587	1.2589254117941662
1887.4918180563566	1.4962356560944328
1918.8026313936527	1.7782794100389228
1951.8670750971314	2.1134890398366473
1986.7566269830304	2.511886431509582
2023.4325181094077	2.9853826189179573
2060.564123977952	3.548133892335753
2099.844098751491	4.216965034285823
2141.5760795210895	5.011872336272725
2186.191142033123	5.956621435290109
2233.8146199116914	7.079457843841373
2295.2693036869205	8.413951416451948
2375.8      	10.0        
