# T(K)	P(bar)
890.3       	1e-08       
900.7637971148714	1.1885022274370215e-08
909.8130898102149	1.4125375446227554e-08
917.9959983621081	1.6788040181225588e-08
925.7770946315169	1.9952623149688826e-08
933.251612755221	2.3713737056616554e-08
940.5020331421795	2.818382931264461e-08
947.951610571051	3.3496543915782795e-08
955.6411486704553	3.981071705534969e-08
963.5865781161231	4.731512589614813e-08
971.4240180307863	5.6234132519034905e-08
979.3032318927303	6.683439175686162e-08
987.3550754541649	7.94328234724282e-08
995.5863475932765	9.440608762859226e-08
1004.0358881356448	1.1220184543019653e-07
1012.3255652899178	1.333521432163324e-07
1020.8191352406811	1.584893192461114e-07
1029.5586551940703	1.883649089489802e-07
1038.5417638819206	2.2387211385683422e-07
1047.7157621695394	2.6607250597988136e-07
1056.7350816194369	3.162277660168379e-07
1065.9205045195567	3.7583740428844433e-07
1075.283265422929	4.466835921509635e-07
1084.8371005920862	5.308844442309889e-07
1094.3716052614989	6.309573444801942e-07
1103.7305305494483	7.498942093324558e-07
1113.351404940876	8.912509381337459e-07
1123.295704825589	1.0592537251772896e-06
1133.6143564026838	1.2589254117941687e-06
1144.0839260041662	1.4962356560944327e-06
1154.993072690928	1.7782794100389227e-06
1166.4100164684617	2.1134890398366474e-06
1178.3343045566075	2.511886431509582e-06
1190.7736111749634	2.9853826189179636e-06
1202.9282227505516	3.5481338923357534e-06
1215.5200547689922	4.216965034285822e-06
1228.527827781858	5.011872336272725e-06
1241.9438875702117	5.95662143529011e-06
1255.573235648604	7.079457843841388e-06
1269.2729377976457	8.413951416451948e-06
1283.4893539581437	1e-05       
1298.245942568877	1.188502227437019e-05
1313.5528911278768	1.4125375446227555e-05
1328.8573570533788	1.678804018122562e-05
1344.5626208145404	1.9952623149688786e-05
1360.9113848015636	2.371373705661655e-05
1377.9127643754819	2.818382931264455e-05
1395.5660844508159	3.349654391578279e-05
1412.9685616403542	3.981071705534977e-05
1431.0240378773174	4.731512589614803e-05
1449.9433128519813	5.623413251903491e-05
1469.8233443316703	6.683439175686148e-05
1490.3694592660333	7.943282347242821e-05
1510.9145525486754	9.440608762859246e-05
1532.3453593044676	0.00011220184543019629
1554.6314289094892	0.0001333521432163324
1577.7490205686713	0.00015848931924611142
1601.0991525206503	0.00018836490894898024
1624.5774262420246	0.00022387211385683424
1648.6019183759379	0.0002660725059798809
1673.107094639264	0.0003162277660168379
1698.036838225377	0.00037583740428844437
1722.2206572769153	0.0004466835921509635
1746.8341417095382	0.0005308844442309889
1772.1461799266497	0.000630957344480193
1798.2480194536572	0.0007498942093324559
1825.1578556447243	0.0008912509381337458
1851.6930551347427	0.0010592537251772895
1878.961220785236	0.0012589254117941673
1907.0797270147325	0.0014962356560944345
1936.0789017651616	0.0017782794100389225
1965.093508872653	0.0021134890398366475
1993.9700211372576	0.002511886431509582
2023.4973561569238	0.0029853826189179603
2053.215260791125	0.0035481338923357567
2082.5789619369166	0.004216965034285822
2110.193994802801	0.0050118723362727255
2136.328371379237	0.005956621435290103
2161.314992700871	0.00707945784384138
2184.967932500799	0.008413951416451957
2207.2      	0.01        
2226.4349211670424	0.01188502227437019
2244.245182946734	0.014125375446227554
2260.825629360564	0.016788040181225587
2276.359086471325	0.01995262314968883
2290.751509666968	0.023713737056616554
2304.0100815671562	0.02818382931264455
2317.046501392212	0.033496543915782793
2329.8470741541564	0.03981071705534969
2342.4270618611517	0.04731512589614813
2354.653468128027	0.056234132519034905
2366.6823621899334	0.06683439175686148
2378.938318896154	0.07943282347242821
2391.505732976357	0.09440608762859228
2404.4712112324933	0.11220184543019629
2417.516467896205	0.1333521432163324
2431.2605533678056	0.1584893192461114
2445.7489806399935	0.18836490894898023
2461.067128973146	0.22387211385683378
2477.3410041964	0.26607250597988086
2494.1029725900617	0.3162277660168379
2511.836924140145	0.3758374042884443
2530.486976742427	0.4466835921509634
2549.955992958856	0.5308844442309879
2569.6553827716916	0.630957344480193
2588.9256372463856	0.7498942093324559
2607.9998853295915	0.8912509381337458
2626.6900390266305	1.0592537251772898
2644.791954480934	1.2589254117941662
2659.9922184949373	1.4962356560944328
2672.591176401557	1.7782794100389228
2682.7896063895737	2.1134890398366473
2690.5434368377378	2.511886431509582
2696.0006810315967	2.9853826189179573
2699.1198032279876	3.548133892335753
2701.169945370428	4.216965034285823
2702.3275137393593	5.011872336272725
2702.8249289252353	5.956621435290109
2702.983409716844	7.079457843841373
2702.9310509112493	8.413951416451948
2702.8      	10.0        
