# T(K)	P(bar)
837.5       	1e-08       
838.9618540086952	1.1885022274370215e-08
840.5497674630973	1.4125375446227554e-08
842.2399179996569	1.6788040181225588e-08
843.9988944882274	1.9952623149688826e-08
845.7482497937751	2.3713737056616554e-08
847.5856254831097	2.818382931264461e-08
849.4629026427627	3.3496543915782795e-08
851.4475860010333	3.981071705534969e-08
853.6281076536757	4.731512589614813e-08
855.900965228928	5.6234132519034905e-08
858.3402296134055	6.683439175686162e-08
861.0221622946596	7.94328234724282e-08
863.9492148203599	9.440608762859226e-08
867.0925916046456	1.1220184543019653e-07
870.3464835717435	1.333521432163324e-07
873.8999941482911	1.584893192461114e-07
877.6756616474057	1.883649089489802e-07
881.63279758139	2.2387211385683422e-07
885.781040285357	2.6607250597988136e-07
890.0851672708416	3.162277660168379e-07
894.5592310350363	3.7583740428844433e-07
899.2669113968201	4.466835921509635e-07
904.2645581693026	5.308844442309889e-07
909.3863995206399	6.309573444801942e-07
914.6130254327478	7.498942093324558e-07
920.1233964172827	8.912509381337459e-07
925.9138895462436	1.0592537251772896e-06
931.9504106889383	1.2589254117941687e-06
937.921942980154	1.4962356560944327e-06
944.025019313967	1.7782794100389227e-06
950.2864953883577	2.1134890398366474e-06
956.6994385396247	2.511886431509582e-06
963.2802330086903	2.9853826189179636e-06
969.6660916980746	3.5481338923357534e-06
976.3542623613639	4.216965034285822e-06
983.3576786116712	5.011872336272725e-06
990.6716594860459	5.95662143529011e-06
998.120256691679	7.079457843841388e-06
1005.725959786331	8.413951416451948e-06
1013.6169244767971	1e-05       
1021.8682199865194	1.188502227437019e-05
1030.5661781387466	1.4125375446227555e-05
1039.2335032292096	1.678804018122562e-05
1048.1571765416015	1.9952623149688786e-05
1057.3487896537004	2.371373705661655e-05
1066.8139600630539	2.818382931264455e-05
1076.6448158736741	3.349654391578279e-05
1086.1160755830247	3.981071705534977e-05
1095.8667896262477	4.731512589614803e-05
1105.844132519035	5.623413251903491e-05
1116.0413104939876	6.683439175686148e-05
1126.4736401699627	7.943282347242821e-05
1137.0794316543715	9.440608762859246e-05
1148.1218934551757	0.00011220184543019629
1159.5814287451542	0.0001333521432163324
1171.4646469596184	0.00015848931924611142
1183.4935028136683	0.00018836490894898024
1195.5489424136706	0.00022387211385683424
1207.9620355199677	0.0002660725059798809
1220.805734548767	0.0003162277660168379
1234.188206300935	0.00037583740428844437
1247.90787287825	0.0004466835921509635
1262.1992149621829	0.0005308844442309889
1277.2998265399283	0.000630957344480193
1293.224083355516	0.0007498942093324559
1309.722375782182	0.0008912509381337458
1326.1751124603913	0.0010592537251772895
1343.3844132269685	0.0012589254117941673
1361.3177754581807	0.0014962356560944345
1379.8644768747897	0.0017782794100389225
1398.3642536136263	0.0021134890398366475
1416.4308931896487	0.002511886431509582
1434.815816658405	0.0029853826189179603
1453.490194950151	0.0035481338923357567
1472.4081273820295	0.004216965034285822
1490.6621321577838	0.0050118723362727255
1508.766597986031	0.005956621435290103
1527.3246159720663	0.00707945784384138
1546.4650125459996	0.008413951416451957
1566.2      	0.01        
1585.511860851711	0.01188502227437019
1605.6994687045046	0.014125375446227554
1626.8153423593633	0.016788040181225587
1648.8584561207533	0.01995262314968883
1671.4410427923701	0.023713737056616554
1694.1893809583523	0.02818382931264455
1717.9723715255707	0.033496543915782793
1742.7879669011734	0.03981071705534969
1768.6429024701738	0.04731512589614813
1794.9767005834422	0.056234132519034905
1822.297554449137	0.06683439175686148
1851.2672686658511	0.07943282347242821
1882.0187692883526	0.09440608762859228
1914.6708601465211	0.11220184543019629
1948.7892237285362	0.1333521432163324
1985.4716545805281	0.1584893192461114
2024.8437562581832	0.18836490894898023
2066.8404666332176	0.22387211385683378
2110.8756584137886	0.26607250597988086
2155.0729645261263	0.3162277660168379
2199.324949529749	0.3758374042884443
2242.166517390126	0.4466835921509634
2281.965635973726	0.5308844442309879
2315.6121937740495	0.630957344480193
2341.9359748687616	0.7498942093324559
2363.376038356169	0.8912509381337458
2380.8710016565337	1.0592537251772898
2395.8234579790196	1.2589254117941662
2406.448132315339	1.4962356560944328
2414.3427437667215	1.7782794100389228
2420.5849398877494	2.1134890398366473
2425.7240068075484	2.511886431509582
2430.218207908374	2.9853826189179573
2433.9237638735854	3.548133892335753
2437.3468852778997	4.216965034285823
2440.502572622328	5.011872336272725
2443.3988628037605	5.956621435290109
2445.9345554695074	7.079457843841373
2448.2684726625243	8.413951416451948
2451.1      	10.0        
