# T(K)	P(bar)
828.5       	1e-08       
829.34633653135	1.1885022274370215e-08
830.2570099789127	1.4125375446227554e-08
831.2035916361765	1.6788040181225588e-08
832.1902055834174	1.9952623149688826e-08
833.3034316869478	2.3713737056616554e-08
834.383281531814	2.818382931264461e-08
835.5752684285085	3.3496543915782795e-08
836.8983906673556	3.981071705534969e-08
838.3494498420634	4.731512589614813e-08
839.8385634258494	5.6234132519034905e-08
841.5664150346353	6.683439175686162e-08
843.4570571490691	7.94328234724282e-08
845.5096926915404	9.440608762859226e-08
847.7683414224766	1.1220184543019653e-07
850.1700235886677	1.333521432163324e-07
852.8106339402167	1.584893192461114e-07
855.6045677409511	1.883649089489802e-07
858.5245981860426	2.2387211385683422e-07
861.6357802140177	2.6607250597988136e-07
864.7909260375804	3.162277660168379e-07
868.1449338886482	3.7583740428844433e-07
871.6550163364017	4.466835921509635e-07
875.2907506481004	5.308844442309889e-07
879.0730334921649	6.309573444801942e-07
882.918401053491	7.498942093324558e-07
886.9727779182775	8.912509381337459e-07
891.2543708611952	1.0592537251772896e-06
895.7639457137457	1.2589254117941687e-06
900.2619830240121	1.4962356560944327e-06
904.9484326348353	1.7782794100389227e-06
909.7920339259772	2.1134890398366474e-06
914.7520076584922	2.511886431509582e-06
919.8079838969206	2.9853826189179636e-06
924.80718024548	3.5481338923357534e-06
930.0378142594569	4.216965034285822e-06
935.5076393563588	5.011872336272725e-06
941.2223702336956	5.95662143529011e-06
947.0861595232367	7.079457843841388e-06
953.0780289225638	8.413951416451948e-06
959.3724294813467	1e-05       
965.9839529522285	1.188502227437019e-05
972.9074205063937	1.4125375446227555e-05
979.7788133709048	1.678804018122562e-05
986.8556917398907	1.9952623149688786e-05
994.1215037101198	2.371373705661655e-05
1001.536985622353	2.818382931264455e-05
1009.1118496585289	3.349654391578279e-05
1016.4270502470515	3.981071705534977e-05
1023.9963919315261	4.731512589614803e-05
1031.799316944122	5.623413251903491e-05
1039.8115547357766	6.683439175686148e-05
1047.9344373842457	7.943282347242821e-05
1056.0169588674567	9.440608762859246e-05
1064.3787726794335	0.00011220184543019629
1072.9821429862632	0.0001333521432163324
1081.8167957738333	0.00015848931924611142
1090.7794726846942	0.00018836490894898024
1099.6815921639238	0.00022387211385683424
1108.7474757519765	0.0002660725059798809
1118.0282072970078	0.0003162277660168379
1127.6120767305986	0.00037583740428844437
1137.223594558774	0.0004466835921509635
1147.1005350277387	0.0005308844442309889
1157.4453362772238	0.000630957344480193
1168.3463297079554	0.0007498942093324559
1179.7990278487964	0.0008912509381337458
1191.4757808129882	0.0010592537251772895
1203.7460094478347	0.0012589254117941673
1216.711782804722	0.0014962356560944345
1230.438210942681	0.0017782794100389225
1244.5897495591414	0.0021134890398366475
1258.748223704681	0.002511886431509582
1273.352653326724	0.0029853826189179603
1288.2718502145271	0.0035481338923357567
1303.3453838480323	0.004216965034285822
1317.9329859551522	0.0050118723362727255
1332.4500164093897	0.005956621435290103
1347.1523145890228	0.00707945784384138
1362.0369687595996	0.008413951416451957
1377.1      	0.01        
1391.41078134828	0.01188502227437019
1406.157408831028	0.014125375446227554
1421.4592619969121	0.016788040181225587
1437.3579809595524	0.01995262314968883
1453.4997594607435	0.023713737056616554
1469.6492229772095	0.02818382931264455
1486.559940891992	0.033496543915782793
1504.1852600827613	0.03981071705534969
1522.4563243540506	0.04731512589614813
1540.952682552656	0.056234132519034905
1559.7567508022173	0.06683439175686148
1579.2128537766544	0.07943282347242821
1599.230783701831	0.09440608762859228
1619.6710942038358	0.11220184543019629
1639.7407198403153	0.1333521432163324
1660.5194908153057	0.1584893192461114
1682.1466379851756	0.18836490894898023
1704.788586092993	0.22387211385683378
1728.6409816408022	0.26607250597988086
1753.7544588850928	0.3162277660168379
1781.1717258060899	0.3758374042884443
1811.4059273466114	0.4466835921509634
1844.954146903472	0.5308844442309879
1881.5950119553463	0.630957344480193
1921.7423151248652	0.7498942093324559
1965.5557877063688	0.8912509381337458
2013.2994500976947	1.0592537251772898
2065.340043835939	1.2589254117941662
2118.851177354627	1.4962356560944328
2170.196361932994	1.7782794100389228
2216.732288370806	2.1134890398366473
2254.914895800008	2.511886431509582
2280.4355377654088	2.9853826189179573
2293.3566883154494	3.548133892335753
2301.5192896761496	4.216965034285823
2305.62003140425	5.011872336272725
2306.2762082710046	5.956621435290109
2303.582034813648	7.079457843841373
2296.887734746174	8.413951416451948
2286.6      	10.0        
