# T(K)	P(bar)
2415.5      	1e-08       
2339.8682899711866	1.1885022274370215e-08
2303.786046263864	1.4125375446227554e-08
2288.9667773653673	1.6788040181225588e-08
2280.83917766633	1.9952623149688826e-08
2276.386273252209	2.3713737056616554e-08
2272.9799210094284	2.818382931264461e-08
2269.7618289287284	3.3496543915782795e-08
2266.620153554063	3.981071705534969e-08
2263.493234534712	4.731512589614813e-08
2260.4366329679933	5.6234132519034905e-08
2257.4134701586618	6.683439175686162e-08
2254.350990847452	7.94328234724282e-08
2251.25078517964	9.440608762859226e-08
2248.111817519385	1.1220184543019653e-07
2245.0128727888155	1.333521432163324e-07
2241.9595793237586	1.584893192461114e-07
2238.8504802878324	1.883649089489802e-07
2235.6433711377504	2.2387211385683422e-07
2232.372641313468	2.6607250597988136e-07
2229.2820233779703	3.162277660168379e-07
2226.1081297855776	3.7583740428844433e-07
2222.8654295601673	4.466835921509635e-07
2219.591041126583	5.308844442309889e-07
2216.4391387565292	6.309573444801942e-07
2213.345279157207	7.498942093324558e-07
2210.2539936073053	8.912509381337459e-07
2207.253518211753	1.0592537251772896e-06
2204.454374778623	1.2589254117941687e-06
2201.972699021235	1.4962356560944327e-06
2199.6056888681137	1.7782794100389227e-06
2197.165401844657	2.1134890398366474e-06
2194.5782815811313	2.511886431509582e-06
2191.8496594842018	2.9853826189179636e-06
2189.082177094811	3.5481338923357534e-06
2186.2206010647074	4.216965034285822e-06
2183.1024156010785	5.011872336272725e-06
2179.626634719594	5.95662143529011e-06
2175.9815765125827	7.079457843841388e-06
2172.22149465121	8.413951416451948e-06
2168.102638762511	1e-05       
2163.579986859466	1.188502227437019e-05
2158.630629608696	1.4125375446227555e-05
2153.3209169406646	1.678804018122562e-05
2147.6704218613922	1.9952623149688786e-05
2141.4894106673123	2.371373705661655e-05
2134.683620607672	2.818382931264455e-05
2127.183440882165	3.349654391578279e-05
2119.5602318478095	3.981071705534977e-05
2111.454923012839	4.731512589614803e-05
2102.985744530907	5.623413251903491e-05
2094.299530279766	6.683439175686148e-05
2085.698831004916	7.943282347242821e-05
2077.511451048091	9.440608762859246e-05
2069.7188687293924	0.00011220184543019629
2062.325357038387	0.0001333521432163324
2055.286459106082	0.00015848931924611142
2048.996861273899	0.00018836490894898024
2043.901388640633	0.00022387211385683424
2039.6549020660095	0.0002660725059798809
2036.220512200855	0.0003162277660168379
2033.5235664128727	0.00037583740428844437
2031.7407848802272	0.0004466835921509635
2030.8898144906705	0.0005308844442309889
2030.5626271386873	0.000630957344480193
2030.482892799245	0.0007498942093324559
2030.4028040010573	0.0008912509381337458
2030.4741827685066	0.0010592537251772895
2030.395674881902	0.0012589254117941673
2029.8938048443447	0.0014962356560944345
2028.68117370729	0.0017782794100389225
2026.467525208626	0.0021134890398366475
2023.493864412026	0.002511886431509582
2019.4845396474643	0.0029853826189179603
2014.294807622619	0.0035481338923357567
2007.8186100524313	0.004216965034285822
1999.705719040985	0.0050118723362727255
1989.7951754071753	0.005956621435290103
1978.8214672972817	0.00707945784384138
1967.1437473184003	0.008413951416451957
1954.9      	0.01        
1942.4357710837564	0.01188502227437019
1930.6516277583187	0.014125375446227554
1919.6950225474507	0.016788040181225587
1909.691941445762	0.01995262314968883
1900.8656487677708	0.023713737056616554
1894.2003108091162	0.02818382931264455
1888.6958348395297	0.033496543915782793
1884.2263349612026	0.03981071705534969
1880.624697659357	0.04731512589614813
1877.881593689225	0.056234132519034905
1875.9973421407838	0.06683439175686148
1874.819459426335	0.07943282347242821
1874.3435494779671	0.09440608762859228
1874.5307512263605	0.11220184543019629
1875.611423376017	0.1333521432163324
1877.3330381798612	0.1584893192461114
1879.6320917553428	0.18836490894898023
1882.440613524146	0.22387211385683378
1885.6315694502746	0.26607250597988086
1889.0827236997834	0.3162277660168379
1892.6979975628742	0.3758374042884443
1896.4152392846863	0.4466835921509634
1900.180526676265	0.5308844442309879
1903.8840119610782	0.630957344480193
1907.4529289692118	0.7498942093324559
1910.8355451820637	0.8912509381337458
1913.946481788247	1.0592537251772898
1916.7319728568727	1.2589254117941662
1918.980991512006	1.4962356560944328
1920.8158281633832	1.7782794100389228
1922.3172990776716	2.1134890398366473
1923.50114419434	2.511886431509582
1924.3839336962878	2.9853826189179573
1925.0039606455975	3.548133892335753
1925.4139890740857	4.216965034285823
1925.6975058882967	5.011872336272725
1925.9124644626177	5.956621435290109
1925.991704858422	7.079457843841373
1926.0689490887507	8.413951416451948
1926.1      	10.0        
