# T(K)	P(bar)
2720.9      	1e-08       
2708.0510726604152	1.1885022274370215e-08
2704.145249168424	1.4125375446227554e-08
2703.0237556368625	1.6788040181225588e-08
2700.4244860414565	1.9952623149688826e-08
2697.6414207826306	2.3713737056616554e-08
2694.450155404558	2.818382931264461e-08
2690.728831884129	3.3496543915782795e-08
2686.4386977754816	3.981071705534969e-08
2681.549395318714	4.731512589614813e-08
2676.0631873784496	5.6234132519034905e-08
2669.999425966486	6.683439175686162e-08
2663.2100296914255	7.94328234724282e-08
2655.6572018846905	9.440608762859226e-08
2647.3420662442013	1.1220184543019653e-07
2638.277652907286	1.333521432163324e-07
2628.4893777632014	1.584893192461114e-07
2617.854205021804	1.883649089489802e-07
2606.30160725583	2.2387211385683422e-07
2593.856879143929	2.6607250597988136e-07
2580.9444981874753	3.162277660168379e-07
2567.318221995923	3.7583740428844433e-07
2552.8788199129704	4.466835921509635e-07
2537.5654296047505	5.308844442309889e-07
2521.884715313733	6.309573444801942e-07
2505.7627155753376	7.498942093324558e-07
2488.940271958783	8.912509381337459e-07
2471.4099609733694	1.0592537251772896e-06
2453.121463204177	1.2589254117941687e-06
2434.7415521260195	1.4962356560944327e-06
2415.9062694606587	1.7782794100389227e-06
2396.4932831037368	2.1134890398366474e-06
2376.738256052824	2.511886431509582e-06
2357.1563798278	2.9853826189179636e-06
2338.605685551374	3.5481338923357534e-06
2319.9141528233795	4.216965034285822e-06
2301.1295367873145	5.011872336272725e-06
2282.3082446727376	5.95662143529011e-06
2263.924472846069	7.079457843841388e-06
2246.279607764813	8.413951416451948e-06
2228.668880800728	1e-05       
2211.1104448420256	1.188502227437019e-05
2193.615961262788	1.4125375446227555e-05
2176.82789915063	1.678804018122562e-05
2160.336884251556	1.9952623149688786e-05
2143.8940723871524	2.371373705661655e-05
2127.5169353049187	2.818382931264455e-05
2111.1692364939827	3.349654391578279e-05
2096.0768226481887	3.981071705534977e-05
2080.9193874008565	4.731512589614803e-05
2065.541338789521	5.623413251903491e-05
2049.8658055129044	6.683439175686148e-05
2034.0978568423466	7.943282347242821e-05
2018.7535731940584	9.440608762859246e-05
2003.0895064021654	0.00011220184543019629
1987.185356906919	0.0001333521432163324
1971.1072285040307	0.00015848931924611142
1955.304613950671	0.00018836490894898024
1939.65842072076	0.00022387211385683424
1923.9409683220401	0.0002660725059798809
1908.2294082107856	0.0003162277660168379
1892.55862250802	0.00037583740428844437
1877.5987600819083	0.0004466835921509635
1862.7077953882963	0.0005308844442309889
1847.7739020731995	0.000630957344480193
1832.8693822618475	0.0007498942093324559
1818.2131321934983	0.0008912509381337458
1804.2729189003232	0.0010592537251772895
1790.471552166431	0.0012589254117941673
1776.8507087576868	0.0014962356560944345
1763.4781354702293	0.0017782794100389225
1750.8287154778623	0.0021134890398366475
1738.8137245966002	0.002511886431509582
1727.1724357497433	0.0029853826189179603
1716.1003163410187	0.0035481338923357567
1705.7347557330704	0.004216965034285822
1696.4517362103577	0.0050118723362727255
1688.00961636687	0.005956621435290103
1680.1937686803255	0.00707945784384138
1672.9468323820001	0.008413951416451957
1666.1      	0.01        
1659.5601268032053	0.01188502227437019
1653.2746843054908	0.014125375446227554
1647.177552273897	0.016788040181225587
1641.1538692912043	0.01995262314968883
1635.031125721787	0.023713737056616554
1629.162185970153	0.02818382931264455
1623.3143835181481	0.033496543915782793
1617.4787489601692	0.03981071705534969
1611.6100664129076	0.04731512589614813
1605.7319864769102	0.056234132519034905
1600.1732405452565	0.06683439175686148
1594.7248045545318	0.07943282347242821
1589.3628672270834	0.09440608762859228
1584.057226449041	0.11220184543019629
1579.039820039921	0.1333521432163324
1574.08874378675	0.1584893192461114
1569.2257204317482	0.18836490894898023
1564.423064375677	0.22387211385683378
1559.5568565883314	0.26607250597988086
1554.7041868203032	0.3162277660168379
1549.5305567175437	0.3758374042884443
1544.0620853358996	0.4466835921509634
1538.3229781405078	0.5308844442309879
1532.3343636374057	0.630957344480193
1526.2569263354842	0.7498942093324559
1520.1079872146104	0.8912509381337458
1513.768443708207	1.0592537251772898
1506.9676751240374	1.2589254117941662
1499.6002002192906	1.4962356560944328
1492.0385836358382	1.7782794100389228
1484.666273880452	2.1134890398366473
1477.590846445281	2.511886431509582
1470.5285304296983	2.9853826189179573
1463.756432898427	3.548133892335753
1456.838743101593	4.216965034285823
1449.6773174627976	5.011872336272725
1442.128624813014	5.956621435290109
1434.0461044409442	7.079457843841373
1424.5124148173968	8.413951416451948
1412.3      	10.0        
