# T(K)	P(bar)
1150.8      	1e-08       
1152.184914324027	1.1885022274370215e-08
1153.8045182946732	1.4125375446227554e-08
1155.674448545049	1.6788040181225588e-08
1157.8347556192398	1.9952623149688826e-08
1160.3792724273092	2.3713737056616554e-08
1163.3391414100531	2.818382931264461e-08
1166.7288967319619	3.3496543915782795e-08
1170.6505487428838	3.981071705534969e-08
1175.21127577548	4.731512589614813e-08
1180.3056117200113	5.6234132519034905e-08
1186.1093025072573	6.683439175686162e-08
1192.6631234506863	7.94328234724282e-08
1199.9774738983585	9.440608762859226e-08
1208.0402972596755	1.1220184543019653e-07
1216.484921650477	1.333521432163324e-07
1225.3638153447182	1.584893192461114e-07
1234.6123211436995	1.883649089489802e-07
1244.105825234335	2.2387211385683422e-07
1253.5989191145668	2.6607250597988136e-07
1262.7809804505384	3.162277660168379e-07
1271.9694832948146	3.7583740428844433e-07
1281.1929310005023	4.466835921509635e-07
1290.4962047047445	5.308844442309889e-07
1299.7155191371517	6.309573444801942e-07
1309.0305305494483	7.498942093324558e-07
1318.785713124929	8.912509381337459e-07
1329.137556765088	1.0592537251772896e-06
1340.2689658607	1.2589254117941687e-06
1351.6691638712032	1.4962356560944327e-06
1363.86965937006	1.7782794100389227e-06
1377.013127469678	2.1134890398366474e-06
1391.2657379905709	2.511886431509582e-06
1406.9151882523734	2.9853826189179636e-06
1424.1108980767315	3.5481338923357534e-06
1442.3858471766205	4.216965034285822e-06
1461.9180083562949	5.011872336272725e-06
1483.164267710488	5.95662143529011e-06
1507.094867243479	7.079457843841388e-06
1534.9043155715503	8.413951416451948e-06
1565.2371246587807	1e-05       
1602.7860345526158	1.188502227437019e-05
1653.7186396841416	1.4125375446227555e-05
1717.2790236808696	1.678804018122562e-05
1755.2129272292946	1.9952623149688786e-05
1775.4076982159572	2.371373705661655e-05
1783.2272803511264	2.818382931264455e-05
1786.8023547296532	3.349654391578279e-05
1786.9563589525694	3.981071705534977e-05
1786.663486208274	4.731512589614803e-05
1786.4      	5.623413251903491e-05
1786.3851808359238	6.683439175686148e-05
1786.3055447315269	7.943282347242821e-05
1786.6579504222598	9.440608762859246e-05
1787.6466586625033	0.00011220184543019629
1789.020714306843	0.0001333521432163324
1790.4248696564357	0.00015848931924611142
1791.5255492770677	0.00018836490894898024
1792.5457452011392	0.00022387211385683424
1793.4786399419977	0.0002660725059798809
1794.260482782177	0.0003162277660168379
1794.8199391966418	0.00037583740428844437
1795.2850126399408	0.0004466835921509635
1795.6929896495212	0.0005308844442309889
1796.1989828905023	0.000630957344480193
1796.8881792083043	0.0007498942093324559
1797.769155988369	0.0008912509381337458
1798.1709138425324	0.0010592537251772895
1798.5086502361958	0.0012589254117941673
1798.9187204684297	0.0014962356560944345
1799.4455466132442	0.0017782794100389225
1799.7617821130534	0.0021134890398366475
1798.852852544209	0.002511886431509582
1797.8937277308833	0.0029853826189179603
1797.0969425440626	0.0035481338923357567
1796.3322913612783	0.004216965034285822
1793.9920343387457	0.0050118723362727255
1791.3569488003816	0.005956621435290103
1789.6413324529346	0.00707945784384138
1789.3333883695998	0.008413951416451957
1790.3      	0.01        
1791.2232762160181	0.01188502227437019
1795.3873090419004	0.014125375446227554
1802.8713448162011	0.016788040181225587
1813.0390224769592	0.01995262314968883
1823.2170897092371	0.023713737056616554
1833.9328153181395	0.02818382931264455
1845.4650500708308	0.033496543915782793
1856.982553264349	0.03981071705534969
1867.425907021929	0.04731512589614813
1875.6552189323256	0.056234132519034905
1884.2408036469194	0.06683439175686148
1893.2893097436063	0.07943282347242821
1902.8000676339645	0.09440608762859228
1912.8097087797726	0.11220184543019629
1923.693621144171	0.1333521432163324
1935.484836715139	0.1584893192461114
1947.8980788486717	0.18836490894898023
1960.838622815725	0.22387211385683378
1974.4799593999237	0.26607250597988086
1988.4038442146843	0.3162277660168379
2002.687905352529	0.3758374042884443
2017.2706227163183	0.4466835921509634
2032.0914347895534	0.5308844442309879
2046.6689832510515	0.630957344480193
2060.3807717082886	0.7498942093324559
2073.4631031495173	0.8912509381337458
2085.8552235106376	1.0592537251772898
2097.614356402684	1.2589254117941662
2108.083926004166	1.4962356560944328
2117.9762963828593	1.7782794100389228
2127.3982559284095	2.1134890398366473
2136.338298600003	2.511886431509582
2144.8451792551364	2.9853826189179573
2152.172032666471	3.548133892335753
2158.940273287278	4.216965034285823
2165.107639356359	5.011872336272725
2170.635403294433	5.956621435290109
2175.310586646905	7.079457843841373
2178.971658082538	8.413951416451948
2182.9      	10.0        
