# T(K)	P(bar)
1065.3      	1e-08       
1076.5331939615533	1.1885022274370215e-08
1087.0176081048885	1.4125375446227554e-08
1097.7767322704663	1.6788040181225588e-08
1109.2477113817692	1.9952623149688826e-08
1120.0619078160646	2.3713737056616554e-08
1130.481643342492	2.818382931264461e-08
1140.944418811977	3.3496543915782795e-08
1149.9873812622825	3.981071705534969e-08
1156.754014675605	4.731512589614813e-08
1167.2561841612537	5.6234132519034905e-08
1180.1937485228927	6.683439175686162e-08
1190.305405736649	7.94328234724282e-08
1199.0492824543246	9.440608762859226e-08
1212.0645474418445	1.1220184543019653e-07
1221.3613816335526	1.333521432163324e-07
1231.4978556568296	1.584893192461114e-07
1242.128367021371	1.883649089489802e-07
1253.0741780107192	2.2387211385683422e-07
1264.4020715484749	2.6607250597988136e-07
1275.6506146704085	3.162277660168379e-07
1287.2021624865588	3.7583740428844433e-07
1299.0468325954814	4.466835921509635e-07
1311.1847156344907	5.308844442309889e-07
1323.3983373184487	6.309573444801942e-07
1335.785251392241	7.498942093324558e-07
1348.2287949654637	8.912509381337459e-07
1361.1807793291348	1.0592537251772896e-06
1375.4600989637574	1.2589254117941687e-06
1390.1174964058325	1.4962356560944327e-06
1405.4620742125749	1.7782794100389227e-06
1421.2548196632486	2.1134890398366474e-06
1438.1531731264213	2.511886431509582e-06
1458.1363173068767	2.9853826189179636e-06
1475.4863931574312	3.5481338923357534e-06
1495.6582515748705	4.216965034285822e-06
1517.07802405842	5.011872336272725e-06
1538.8642677104879	5.95662143529011e-06
1562.794867243479	7.079457843841388e-06
1588.3979447315241	8.413951416451948e-06
1619.1066424021838	1e-05       
1653.3791103159488	1.188502227437019e-05
1689.0928405786435	1.4125375446227555e-05
1730.8677858344784	1.678804018122562e-05
1778.501661645118	1.9952623149688786e-05
1828.8272516576092	2.371373705661655e-05
1880.929811496921	2.818382931264455e-05
1935.3923665283148	3.349654391578279e-05
1987.214787539639	3.981071705534977e-05
2038.7482601940064	4.731512589614803e-05
2087.7910587675838	5.623413251903491e-05
2127.937811205571	6.683439175686148e-05
2142.1130377881937	7.943282347242821e-05
2098.928917893136	9.440608762859246e-05
2038.4196220152678	0.00011220184543019629
1979.218213641286	0.0001333521432163324
1934.1973372299133	0.00015848931924611142
1881.2860954666746	0.00018836490894898024
1858.717503550127	0.00022387211385683424
1861.3254896699525	0.0002660725059798809
1870.0835559873065	0.0003162277660168379
1855.368571121084	0.00037583740428844437
1866.297797038606	0.0004466835921509635
1865.308330416035	0.0005308844442309889
1863.2979657810042	0.000630957344480193
1865.7712192649242	0.0007498942093324559
1872.6588559090665	0.0008912509381337458
1879.9473630081177	0.0010592537251772895
1887.042467755358	0.0012589254117941673
1893.862154058748	0.0014962356560944345
1900.4337055715075	0.0017782794100389225
1906.9165333175956	0.0021134890398366475
1912.6386974480529	0.002511886431509582
1918.5439058838178	0.0029853826189179603
1924.6798101953889	0.0035481338923357567
1930.9751744763782	0.004216965034285822
1937.6059027068873	0.0050118723362727255
1944.6331631532826	0.005956621435290103
1952.3446027660875	0.00707945784384138
1960.7782914495997	0.008413951416451957
1969.8      	0.01        
1978.9558224755124	0.01188502227437019
1988.7081064417362	0.014125375446227554
1998.9731406342896	0.016788040181225587
2009.634125268668	0.01995262314968883
2020.3688055527111	0.023713737056616554
2030.7816433424916	0.02818382931264455
2041.0990559816316	0.033496543915782793
2051.205669560263	0.03981071705534969
2060.9966990523803	0.04731512589614813
2069.9313805550964	0.056234132519034905
2078.0669890681493	0.06683439175686148
2085.5631234506864	0.07943282347242821
2092.3113306847854	0.09440608762859228
2098.2361840024532	0.11220184543019629
2103.0220178080754	0.1333521432163324
2107.0514333053334	0.1584893192461114
2110.4770437265597	0.18836490894898023
2113.3484294669024	0.22387211385683378
2115.582098615192	0.26607250597988086
2117.1589883110146	0.3162277660168379
2118.414297146388	0.3758374042884443
2119.340891793138	0.4466835921509634
2119.940895887342	0.5308844442309879
2120.2560861243473	0.630957344480193
2120.4991040632094	0.7498942093324559
2120.6447693946843	0.8912509381337458
2120.7      	1.0592537251772898
2120.704550788168	1.2589254117941662
2120.7821031555864	1.4962356560944328
2120.8      	1.7782794100389228
2120.8      	2.1134890398366473
2120.8      	2.511886431509582
2120.8      	2.9853826189179573
2120.8      	3.548133892335753
2120.7465027314784	4.216965034285823
2120.7      	5.011872336272725
2120.7      	5.956621435290109
2120.7      	7.079457843841373
2120.7      	8.413951416451948
2120.7      	10.0        
