# T(K)	P(bar)
2141.7      	1e-08       
2111.154945186736	1.1885022274370215e-08
2088.8050495901684	1.4125375446227554e-08
2072.6533087297057	1.6788040181225588e-08
2060.9685609160783	1.9952623149688826e-08
2053.175978191365	2.3713737056616554e-08
2047.7240611311893	2.818382931264461e-08
2042.9381062234384	3.3496543915782795e-08
2038.4494512571162	3.981071705534969e-08
2033.9673820361324	4.731512589614813e-08
2029.6567900830676	5.6234132519034905e-08
2025.5846268782159	6.683439175686162e-08
2021.6704502737873	7.94328234724282e-08
2018.007235701673	9.440608762859226e-08
2014.7206357674465	1.1220184543019653e-07
2011.9315855099342	1.333521432163324e-07
2009.4765994798142	1.584893192461114e-07
2007.112860215874	1.883649089489802e-07
2004.7035245187867	2.2387211385683422e-07
2002.230533676037	2.6607250597988136e-07
1999.7656187023763	3.162277660168379e-07
1997.2673208082558	3.7583740428844433e-07
1994.4654295601674	4.466835921509635e-07
1991.068353464558	5.308844442309889e-07
1986.9708803834883	6.309573444801942e-07
1982.0860786304618	7.498942093324558e-07
1976.184140241188	8.912509381337459e-07
1968.9396286655094	1.0592537251772896e-06
1960.0220499026602	1.2589254117941687e-06
1950.1728992405253	1.4962356560944327e-06
1939.1676858248204	1.7782794100389227e-06
1926.9726844538668	2.1134890398366474e-06
1913.553692039618	2.511886431509582e-06
1898.8672848708495	2.9853826189179636e-06
1884.557914989857	3.5481338923357534e-06
1868.658579073458	4.216965034285822e-06
1851.0970348245487	5.011872336272725e-06
1831.6099504670972	5.95662143529011e-06
1809.4226396418073	7.079457843841388e-06
1788.3458478597775	8.413951416451948e-06
1767.196542311192	1e-05       
1743.651727451344	1.188502227437019e-05
1715.3634154686708	1.4125375446227555e-05
1687.7997600008023	1.678804018122562e-05
1667.2974663826799	1.9952623149688786e-05
1646.283483054465	2.371373705661655e-05
1622.6060063919901	2.818382931264455e-05
1597.0351689242734	3.349654391578279e-05
1586.2548733201345	3.981071705534977e-05
1578.4888069158349	4.731512589614803e-05
1573.4002732223512	5.623413251903491e-05
1570.6666275233138	6.683439175686148e-05
1569.949902583743	7.943282347242821e-05
1571.0454413512316	9.440608762859246e-05
1573.5917449308909	0.00011220184543019629
1577.3489286383365	0.0001333521432163324
1582.0332675433524	0.00015848931924611142
1587.6152856194146	0.00018836490894898024
1594.3551590848099	0.00022387211385683424
1603.9398828559702	0.0002660725059798809
1615.7389167609342	0.0003162277660168379
1627.7552783233225	0.00037583740428844437
1638.3744552786454	0.0004466835921509635
1648.9693184669723	0.0005308844442309889
1659.7200819998493	0.000630957344480193
1670.7292225072003	0.0007498942093324559
1682.1018318498539	0.0008912509381337458
1694.0725118870141	0.0010592537251772895
1708.532511809793	0.0012589254117941673
1724.349156240849	0.0014962356560944345
1740.320397395658	0.0017782794100389225
1755.7368780113552	0.0021134890398366475
1771.333638108969	0.002511886431509582
1788.301593892764	0.0029853826189179603
1807.4801000478456	0.0035481338923357567
1829.5373291882827	0.004216965034285822
1850.9896852281647	0.0050118723362727255
1872.2770293912984	0.005956621435290103
1894.4172134557623	0.00707945784384138
1917.4207699011993	0.008413951416451957
1940.7      	0.01        
1960.7043180137246	0.01188502227437019
1979.566445420375	0.014125375446227554
1997.4982820875252	0.016788040181225587
2014.4949476023376	0.01995262314968883
2029.6825323005023	0.023713737056616554
2042.5886751963787	0.02818382931264455
2054.4774158565765	0.033496543915782793
2065.4717997827147	0.03981071705534969
2075.7360279581867	0.04731512589614813
2085.0625814566356	0.056234132519034905
2093.7770464715004	0.06683439175686148
2102.0282285962767	0.07943282347242821
2109.6726275525884	0.09440608762859228
2116.5625421964764	0.11220184543019629
2122.27466641609	0.1333521432163324
2127.1246485772776	0.1584893192461114
2131.230709676189	0.18836490894898023
2134.612490819317	0.22387211385683378
2137.16525556022	0.26607250597988086
2138.977836557667	0.3162277660168379
2140.212254696904	0.3758374042884443
2140.920445896569	0.4466835921509634
2141.1897760281645	0.5308844442309879
2141.1109784689133	0.630957344480193
2140.8345279157206	0.7498942093324559
2140.5656918159466	0.8912509381337458
2140.4      	1.0592537251772898
2140.418203152672	1.2589254117941662
2140.728412622346	1.4962356560944328
2141.278482968503	1.7782794100389228
2142.024393115899	2.1134890398366473
2142.9377158660377	2.511886431509582
2143.981012550158	2.9853826189179573
2144.9059409683964	3.548133892335753
2145.841967222257	4.216965034285823
2146.7250196276564	5.011872336272725
2147.4872512383226	5.956621435290109
2148.0419340089547	7.079457843841373
2148.444745443754	8.413951416451948
2148.9      	10.0        
