# T(K)	P(bar)
848.2       	1e-08       
851.816165179404	1.1885022274370215e-08
855.1447840946186	1.4125375446227554e-08
858.2780401812256	1.6788040181225588e-08
861.3162722978473	1.9952623149688826e-08
864.3378860074298	2.3713737056616554e-08
867.2689070149237	2.818382931264461e-08
870.3381710712713	3.3496543915782795e-08
873.5905999275715	3.981071705534969e-08
877.0618259334167	4.731512589614813e-08
880.6670482941618	5.6234132519034905e-08
884.5516159463651	6.683439175686162e-08
888.6832434419894	7.94328234724282e-08
893.0847096000316	9.440608762859226e-08
897.8410919689838	1.1220184543019653e-07
902.7994035378948	1.333521432163324e-07
908.1212678804335	1.584893192461114e-07
913.8540874531192	1.883649089489802e-07
920.0452884007071	2.2387211385683422e-07
926.7462958455767	2.6607250597988136e-07
933.8113462306683	3.162277660168379e-07
941.5041649236845	3.7583740428844433e-07
949.8724851039332	4.466835921509635e-07
958.9575485357573	5.308844442309889e-07
968.6496483236724	6.309573444801942e-07
978.9596828444257	7.498942093324558e-07
990.0811010186189	8.912509381337459e-07
1002.1180014198861	1.0592537251772896e-06
1015.1963879294051	1.2589254117941687e-06
1028.7680522276228	1.4962356560944327e-06
1043.3237808730091	1.7782794100389227e-06
1059.02488800973	2.1134890398366474e-06
1075.9325989018923	2.511886431509582e-06
1094.069910487366	2.9853826189179636e-06
1113.0472849328244	3.5481338923357534e-06
1133.2767761581774	4.216965034285822e-06
1154.8955613509665	5.011872336272725e-06
1178.0141255609578	5.95662143529011e-06
1202.2616866771675	7.079457843841388e-06
1227.208453844016	8.413951416451948e-06
1253.545313921747	1e-05       
1281.4200788432047	1.188502227437019e-05
1310.998879749999	1.4125375446227555e-05
1341.5297275911794	1.678804018122562e-05
1373.5508602964603	1.9952623149688786e-05
1407.896604173167	2.371373705661655e-05
1444.8588714023404	2.818382931264455e-05
1484.6381317360276	3.349654391578279e-05
1526.3732761463364	3.981071705534977e-05
1571.4026941169739	4.731512589614803e-05
1620.5304850006464	5.623413251903491e-05
1674.2142556271228	6.683439175686148e-05
1731.7911591059772	7.943282347242821e-05
1790.9959551124673	9.440608762859246e-05
1851.1490501648602	0.00011220184543019629
1909.6607150956515	0.0001333521432163324
1963.7126247797753	0.00015848931924611142
2007.8970495508604	0.00018836490894898024
2041.3783305279735	0.00022387211385683424
2067.435460383945	0.0002660725059798809
2086.46817787833	0.0003162277660168379
2099.0093615647397	0.00037583740428844437
2103.892632719377	0.0004466835921509635
2103.752247612203	0.0005308844442309889
2099.361696759225	0.000630957344480193
2090.99970548525	0.0007498942093324559
2078.82620816072	0.0008912509381337458
2063.6376290672065	0.0010592537251772895
2046.6590990958846	0.0012589254117941673
2028.7072076666361	0.0014962356560944345
2010.879602604342	0.0017782794100389225
1995.4631219886446	0.0021134890398366475
1984.060872052391	0.002511886431509582
1975.5418713505412	0.0029853826189179603
1969.9608592662898	0.0035481338923357567
1967.2      	0.004216965034285822
1967.2      	0.0050118723362727255
1968.7307508568704	0.005956621435290103
1971.2542260372827	0.00707945784384138
1974.4752063859999	0.008413951416451957
1978.1      	0.01        
1981.7931048640723	0.01188502227437019
1985.2542857577707	0.014125375446227554
1988.4107749085294	0.016788040181225587
1991.1668250537336	0.01995262314968883
1993.3137611105421	0.023713737056616554
1994.8344535074618	0.02818382931264455
1995.836088491036	0.033496543915782793
1996.383065111226	0.03981071705534969
1996.6157315623225	0.04731512589614813
1996.7724803606156	0.056234132519034905
1996.8637571754189	0.06683439175686148
1997.0268468578884	0.07943282347242821
1997.417747389836	0.09440608762859228
1998.2307512263603	0.11220184543019629
1999.3114233760168	0.1333521432163324
2000.6891090166944	0.1584893192461114
2002.2972358416923	0.18836490894898023
2004.0843681144877	0.22387211385683378
2005.9989416701646	0.26607250597988086
2007.8507859732179	0.3162277660168379
2009.571445719582	0.3758374042884443
2011.172118008703	0.4466835921509634
2012.6635835493669	0.5308844442309879
2013.9243444973881	0.630957344480193
2014.8964162528378	0.7498942093324559
2015.7476939468447	0.8912509381337458
2016.5176667455491	1.0592537251772898
2017.2318555171762	1.2589254117941662
2017.774722089105	1.4962356560944328
2018.2588622263772	1.7782794100389228
2018.7700683464814	2.1134890398366473
2019.3280008509437	2.511886431509582
2019.8897759885467	2.9853826189179573
2020.4284655648978	3.548133892335753
2020.97448087965	4.216965034285823
2021.462509813828	5.011872336272725
2021.84985785047	5.956621435290109
2022.1668194336885	7.079457843841373
2022.3378981775018	8.413951416451948
2022.5      	10.0        
