# T(K)	P(bar)
2288.9      	1e-08       
2276.358831399088	1.1885022274370215e-08
2265.5371427266878	1.4125375446227554e-08
2256.471266910588	1.6788040181225588e-08
2249.1761443091154	1.9952623149688826e-08
2243.769046091968	2.3713737056616554e-08
2239.7882802435215	2.818382931264461e-08
2236.2649203751653	3.3496543915782795e-08
2233.0201535540627	3.981071705534969e-08
2229.8853687535507	4.731512589614813e-08
2226.750392787685	5.6234132519034905e-08
2223.713470158662	6.683439175686162e-08
2220.6509908474522	7.94328234724282e-08
2217.572559918624	9.440608762859226e-08
2214.518431205431	1.1220184543019653e-07
2211.6519073296545	1.333521432163324e-07
2208.774472691771	1.584893192461114e-07
2205.8591942662447	1.883649089489802e-07
2202.891417152061	2.2387211385683422e-07
2199.860009022239	2.6607250597988136e-07
2197.0738210401732	3.162277660168379e-07
2194.110172235062	3.7583740428844433e-07
2191.025652508452	4.466835921509635e-07
2187.8910411265833	5.308844442309889e-07
2184.7391387565294	6.309573444801942e-07
2181.5789111361373	7.498942093324558e-07
2178.2301466338827	8.912509381337459e-07
2174.5907403025044	1.0592537251772896e-06
2170.5679098034307	1.2589254117941687e-06
2166.6127390650927	1.4962356560944327e-06
2162.8291021889822	1.7782794100389227e-06
2159.08668395934	2.1134890398366474e-06
2155.4137090584895	2.511886431509582e-06
2151.9628046417843	2.9853826189179636e-06
2148.8801967720124	3.5481338923357534e-06
2145.974098333229	4.216965034285822e-06
2143.292439154266	5.011872336272725e-06
2140.8260661214745	5.95662143529011e-06
2138.4488542473364	7.079457843841388e-06
2136.2004764262265	8.413951416451948e-06
2133.930482256597	1e-05       
2131.5767146334993	1.188502227437019e-05
2129.058412298594	1.4125375446227555e-05
2126.325471954754	1.678804018122562e-05
2123.422649063958	1.9952623149688786e-05
2120.2330681770413	2.371373705661655e-05
2116.7315071888233	2.818382931264455e-05
2112.938777029016	3.349654391578279e-05
2108.934667233193	3.981071705534977e-05
2104.715290242511	4.731512589614803e-05
2100.270396172409	5.623413251903491e-05
2095.6108501554254	6.683439175686148e-05
2090.83268389162	7.943282347242821e-05
2085.989824679526	9.440608762859246e-05
2080.9627757021926	0.00011220184543019629
2075.703928490435	0.0001333521432163324
2070.1488939343	0.00015848931924611142
2064.409635912433	0.00018836490894898024
2058.4255287931646	0.00022387211385683424
2052.0884440740165	0.0002660725059798809
2045.3825021669186	0.0003162277660168379
2038.2942656514913	0.00037583740428844437
2031.1631395209097	0.0004466835921509635
2023.774598729196	0.0005308844442309889
2016.1374595913487	0.000630957344480193
2008.3234943260165	0.0007498942093324559
2000.4747921036221	0.0008912509381337458
1993.0042714548695	0.0010592537251772895
1985.4923943312992	0.0012589254117941673
1977.962896566801	0.0014962356560944345
1970.4638145486929	0.0017782794100389225
1963.2694569280343	0.0021134890398366475
1956.3111949270583	0.002511886431509582
1949.441871350541	0.0029853826189179603
1942.7694254406267	0.0035481338923357567
1936.3415963874938	0.004216965034285822
1929.944893859238	0.0050118723362727255
1923.6403672237402	0.005956621435290103
1917.4313998751084	0.00707945784384138
1911.3218736592	0.008413951416451957
1905.2      	0.01        
1899.5064633345553	0.01188502227437019
1894.6244517685882	0.014125375446227554
1890.45289872799	0.016788040181225587
1886.9244860414565	0.01995262314968883
1884.1414207826306	0.023713737056616554
1882.7060152827974	0.02818382931264455
1882.1515457232183	0.033496543915782793
1882.321506963269	0.03981071705534969
1883.0179867174186	0.04731512589614813
1884.1936027046181	0.056234132519034905
1885.8026578592162	0.06683439175686148
1887.6147748631063	0.07943282347242821
1889.6532421695076	0.09440608762859228
1892.0790745820696	0.11220184543019629
1894.8579458240436	0.1333521432163324
1897.6062534518055	0.1584893192461114
1900.3683297481468	0.18836490894898023
1903.1925675098353	0.22387211385683378
1906.1442017415038	0.26607250597988086
1908.4155330509716	0.3162277660168379
1910.169403270098	0.3758374042884443
1911.2806688448536	0.4466835921509634
1911.5875363098103	0.5308844442309879
1910.7207631580454	0.630957344480193
1908.6089593679053	0.7498942093324559
1905.7644548179362	0.8912509381337458
1902.3391106904041	1.0592537251772898
1898.4770113797667	1.2589254117941662
1894.6769453762656	1.4962356560944328
1891.2281540442964	1.7782794100389228
1888.342564229366	2.1134890398366473
1886.1159974471693	2.511886431509582
1884.43067203436	2.9853826189179573
1883.4940590316037	3.548133892335753
1882.932513657393	4.216965034285823
1882.7      	5.011872336272725
1882.724928925235	5.956621435290109
1882.8834097168444	7.079457843841373
1883.1757963550033	8.413951416451948
1883.5      	10.0        
