# T(K)	P(bar)
2141.3      	1e-08       
2140.5306031533187	1.1885022274370215e-08
2139.588239189511	1.4125375446227554e-08
2138.4955104547794	1.6788040181225588e-08
2137.2418638510762	1.9952623149688826e-08
2135.731056996285	2.3713737056616554e-08
2134.125077702279	2.818382931264461e-08
2132.2886430804556	3.3496543915782795e-08
2130.224725628558	3.981071705534969e-08
2127.9482950028405	4.731512589614813e-08
2125.4403142301485	5.6234132519034905e-08
2122.8322560357565	6.683439175686162e-08
2119.9932731334147	7.94328234724282e-08
2116.929010440657	9.440608762859226e-08
2113.705203833339	1.1220184543019653e-07
2110.373838247977	1.333521432163324e-07
2106.9723459037277	1.584893192461114e-07
2103.3968143382026	1.883649089489802e-07
2099.615248432921	2.2387211385683422e-07
2095.7063274234138	2.6607250597988136e-07
2091.6336809758104	3.162277660168379e-07
2087.1387265154794	3.7583740428844433e-07
2082.1825312324686	4.466835921509635e-07
2076.7127541686723	5.308844442309889e-07
2070.6453421063193	6.309573444801942e-07
2063.8268781037164	7.498942093324558e-07
2056.0992135581296	8.912509381337459e-07
2046.648035713563	1.0592537251772896e-06
2034.5310341393	1.2589254117941687e-06
2023.1308361287968	1.4962356560944327e-06
1991.5517804055687	1.7782794100389227e-06
2014.7322175516902	2.1134890398366474e-06
1863.3711140053597	2.511886431509582e-06
901.2108104733115	2.9853826189179636e-06
1075.7594853000212	3.5481338923357534e-06
1117.9850270359443	4.216965034285822e-06
1102.612627579765	5.011872336272725e-06
1106.875355373825	5.95662143529011e-06
1106.0829514157788	7.079457843841388e-06
1106.0      	8.413951416451948e-06
1105.81110100091	1e-05       
1105.4937696301288	1.188502227437019e-05
1105.1792924827366	1.4125375446227555e-05
1104.9450404532647	1.678804018122562e-05
1104.8374381332621	1.9952623149688786e-05
1104.9643657509728	2.371373705661655e-05
1105.4266685302753	2.818382931264455e-05
1106.3200152020524	3.349654391578279e-05
1107.6290510968408	3.981071705534977e-05
1109.5703976947218	4.731512589614803e-05
1112.059754099884	5.623413251903491e-05
1115.0372240552786	6.683439175686148e-05
1118.4615765443389	7.943282347242821e-05
1122.2795042225985	9.440608762859246e-05
1126.5886001426588	0.00011220184543019629
1131.3225000739508	0.0001333521432163324
1136.3708327151346	0.00015848931924611142
1141.4025109808808	0.00018836490894898024
1146.7540126215188	0.00022387211385683424
1152.3764287059853	0.0002660725059798809
1158.173606156988	0.0003162277660168379
1164.0525631574635	0.00037583740428844437
1169.9434934392486	0.0004466835921509635
1176.0292364624324	0.0005308844442309889
1182.364574627647	0.000630957344480193
1188.9027904619045	0.0007498942093324559
1195.470071913296	0.0008912509381337458
1202.5989974711047	0.0010592537251772895
1210.4770687001414	0.0012589254117941673
1218.968281713671	0.0014962356560944345
1227.955011744017	0.0017782794100389225
1237.3630178633398	0.0021134890398366475
1247.2272872712167	0.002511886431509582
1257.7053909880915	0.0029853826189179603
1268.7042698428875	0.0035481338923357567
1280.1050014658645	0.004216965034285822
1291.3382351740208	0.0050118723362727255
1303.3743454154203	0.005956621435290103
1316.5537950922835	0.00707945784384138
1330.8369687595996	0.008413951416451957
1345.9      	0.01        
1361.2109972489661	0.01188502227437019
1377.023920473093	0.014125375446227554
1393.4301189057849	0.016788040181225587
1410.6927365787922	0.01995262314968883
1429.3790318880526	0.023713737056616554
1449.1204739434286	0.02818382931264455
1469.7857461775175	0.033496543915782793
1491.4358088256452	0.03981071705534969
1514.4327815339166	0.04731512589614813
1539.669338059132	0.056234132519034905
1566.478768572042	0.06683439175686148
1595.5209623816277	0.07943282347242821
1627.119588284975	0.09440608762859228
1661.6082009213872	0.11220184543019629
1697.0388092565568	0.1333521432163324
1734.5302267980837	0.1584893192461114
1773.1566164740575	0.18836490894898023
1812.2955616851023	0.22387211385683378
1851.6240934746338	0.26607250597988086
1887.183781737791	0.3162277660168379
1922.3554662349343	0.3758374042884443
1956.8468191397494	0.4466835921509634
1990.6576517202448	0.5308844442309879
2025.01338755383	0.630957344480193
2058.271881038953	0.7498942093324559
2091.7269927409047	0.8912509381337458
2125.4303370408134	1.0592537251772898
2159.247502656523	1.2589254117941662
2189.027611745184	1.4962356560944328
2216.474767645629	1.7782794100389228
2241.60428935986	2.1134890398366473
2264.098315618874	2.511886431509582
2283.8406990260705	2.9853826189179573
2299.827481704837	3.548133892335753
2314.583005602378	4.216965034285823
2328.6228395584517	5.011872336272725
2342.5062098832996	5.956621435290109
2356.5317599407144	7.079457843841373
2372.0656141051672	8.413951416451948
2392.2      	10.0        
