# T(K)	P(bar)
1045.2      	1e-08       
1052.1245716201356	1.1885022274370215e-08
1058.7990698523893	1.4125375446227554e-08
1065.0888150897551	1.6788040181225588e-08
1070.8695112384796	1.9952623149688826e-08
1075.9585448546186	2.3713737056616554e-08
1080.5438293126447	2.818382931264461e-08
1085.01343949978	3.3496543915782795e-08
1089.5336138541097	3.981071705534969e-08
1094.3034099943188	4.731512589614813e-08
1099.3193715397033	5.6234132519034905e-08
1104.5354879284869	6.683439175686162e-08
1110.0866068752819	7.94328234724282e-08
1116.0419791186869	9.440608762859226e-08
1122.485183209291	1.1220184543019653e-07
1128.992967143487	1.333521432163324e-07
1135.812754876551	1.584893192461114e-07
1142.9701333307905	1.883649089489802e-07
1150.4374724579511	2.2387211385683422e-07
1158.095766680659	2.6607250597988136e-07
1165.6490427239728	3.162277660168379e-07
1173.3511012494585	3.7583740428844433e-07
1181.2412588883683	4.466835921509635e-07
1189.3428451272132	5.308844442309889e-07
1197.3801961708502	6.309573444801942e-07
1205.2031701280519	7.498942093324558e-07
1213.1217088631327	8.912509381337459e-07
1221.1427045889413	1.0592537251772896e-06
1229.264180393139	1.2589254117941687e-06
1237.1745218698145	1.4962356560944327e-06
1245.1006578484132	1.7782794100389227e-06
1253.135281620156	2.1134890398366474e-06
1261.2651552566065	2.511886431509582e-06
1269.4510215473952	2.9853826189179636e-06
1277.4514883927682	3.5481338923357534e-06
1285.5637159262283	4.216965034285822e-06
1293.8127060903898	5.011872336272725e-06
1302.2212330374562	5.95662143529011e-06
1310.6207149927443	7.079457843841388e-06
1318.9465015850883	8.413951416451948e-06
1327.4947224749772	1e-05       
1336.327565541326	1.188502227437019e-05
1345.500690667519	1.4125375446227555e-05
1354.558435807102	1.678804018122562e-05
1363.8074240085532	1.9952623149688786e-05
1373.3953382801599	2.371373705661655e-05
1383.337597443204	2.818382931264455e-05
1393.6565895219403	3.349654391578279e-05
1403.8978703458722	3.981071705534977e-05
1414.3715603138369	4.731512589614803e-05
1425.1990437217707	5.623413251903491e-05
1436.4635979551313	6.683439175686148e-05
1448.0904691970577	7.943282347242821e-05
1459.5669225833433	9.440608762859246e-05
1471.4199279625307	0.00011220184543019629
1483.6707144711781	0.0001333521432163324
1496.3181625266625	0.00015848931924611142
1508.8187382181259	0.00018836490894898024
1521.4694009989869	0.00022387211385683424
1534.6406754619654	0.0002660725059798809
1548.426700113121	0.0003162277660168379
1562.9247614947785	0.00037583740428844437
1577.4970627181413	0.0004466835921509635
1592.643792191129	0.0005308844442309889
1608.4988094304304	0.000630957344480193
1625.1293697645754	0.0007498942093324559
1642.588727769494	0.0008912509381337458
1660.2620367564953	0.0010592537251772895
1678.8755018488987	0.0012589254117941673
1698.530165769491	0.0014962356560944345
1719.3768762737877	0.0017782794100389225
1741.4343023854774	0.0021134890398366475
1764.5989770789042	0.002511886431509582
1789.542143321767	0.0029853826189179603
1816.3106746072187	0.0035481338923357567
1844.9075385599367	0.004216965034285822
1874.3167684764296	0.0050118723362727255
1904.7470935728252	0.005956621435290103
1936.7979669133715	0.00707945784384138
1970.499226459599	0.008413951416451957
2005.7      	0.01        
2040.1689787313405	0.01188502227437019
2075.1926250408046	0.014125375446227554
2110.667421083923	0.016788040181225587
2146.432234216952	0.01995262314968883
2181.7374049289165	0.023713737056616554
2215.422196276492	0.02818382931264455
2249.041521909039	0.033496543915782793
2282.379920237951	0.03981071705534969
2315.2227151210086	0.04731512589614813
2346.3373515822223	0.056234132519034905
2375.963969483772	0.06683439175686148
2404.879340660633	0.07943282347242821
2433.0034112544195	0.09440608762859228
2460.3094747224577	0.11220184543019629
2485.242125032392	0.1333521432163324
2509.669673430278	0.1584893192461114
2533.880111819672	0.18836490894898023
2557.9565554167857	0.22387211385683378
2581.6494031682887	0.26607250597988086
2604.2741787563673	0.3162277660168379
2626.8941127256976	0.3758374042884443
2649.461324233975	0.4466835921509634
2671.8911443110705	0.5308844442309879
2693.402877986687	0.630957344480193
2713.9211575624327	0.7498942093324559
2734.126656855174	0.8912509381337458
2753.952816935879	1.0592537251772898
2773.355782854983	1.2589254117941662
2791.3479320960487	1.4962356560944328
2808.6582816338323	1.7782794100389228
2825.4863068173754	2.1134890398366473
2841.7108804830236	2.511886431509582
2857.1195699715677	2.9853826189179573
2870.309658799648	3.548133892335753
2882.4175957411708	4.216965034285823
2893.297741420171	5.011872336272725
2902.821517336516	5.956621435290109
2910.5870761253673	7.079457843841373
2916.8469780113146	8.413951416451948
2923.5      	10.0        
