# T(K)	P(bar)
1130.8      	1e-08       
1150.5734989597202	1.1885022274370215e-08
1161.9750831576064	1.4125375446227554e-08
1169.022447726103	1.6788040181225588e-08
1174.9917862563907	1.9952623149688826e-08
1180.7964652247992	2.3713737056616554e-08
1186.7080484249768	2.818382931264461e-08
1192.9247964193244	3.3496543915782795e-08
1199.5088882255516	3.981071705534969e-08
1206.5000545233495	4.731512589614813e-08
1213.4753760474	5.6234132519034905e-08
1220.565660138541	6.683439175686162e-08
1227.8322525945373	7.94328234724282e-08
1235.246825464457	9.440608762859226e-08
1242.807228829445	1.1220184543019653e-07
1250.089748946283	1.333521432163324e-07
1257.4574349805882	1.584893192461114e-07
1264.8701333307904	1.883649089489802e-07
1272.28942644364	2.2387211385683422e-07
1279.7083989718883	2.6607250597988136e-07
1286.7383968151175	3.162277660168379e-07
1293.6898677772965	3.7583740428844433e-07
1300.649809724519	4.466835921509635e-07
1307.669037606011	5.308844442309889e-07
1314.3668301423752	6.309573444801942e-07
1321.0076498120045	7.498942093324558e-07
1327.7501679428656	8.912509381337459e-07
1334.6041118736425	1.0592537251772896e-06
1341.6004693587865	1.2589254117941687e-06
1348.4250776916047	1.4962356560944327e-06
1355.3829333956587	1.7782794100389227e-06
1362.5108885042569	2.1134890398366474e-06
1369.7640110622663	2.511886431509582e-06
1377.0670878511075	2.9853826189179636e-06
1384.2210425050716	3.5481338923357534e-06
1391.4217487039712	4.216965034285822e-06
1398.7226825372024	5.011872336272725e-06
1406.1716594860459	5.95662143529011e-06
1413.620256691679	7.079457843841388e-06
1421.0191125200786	8.413951416451948e-06
1428.6752502274796	1e-05       
1436.6088744317128	1.188502227437019e-05
1444.8316656099742	1.4125375446227555e-05
1453.1085706513172	1.678804018122562e-05
1461.5818053411738	1.9952623149688786e-05
1470.3433324649843	2.371373705661655e-05
1479.4109289129287	2.818382931264455e-05
1488.8401064143677	3.349654391578279e-05
1498.0033576778856	3.981071705534977e-05
1507.386361466476	4.731512589614803e-05
1517.0741461801524	5.623413251903491e-05
1527.156129658064	6.683439175686148e-05
1537.6680954384358	7.943282347242821e-05
1548.3510217388234	9.440608762859246e-05
1559.5713038073823	0.00011220184543019629
1571.3550001807687	0.0001333521432163324
1583.7627588325322	0.00015848931924611142
1596.6564343885073	0.00018836490894898024
1610.0199742306324	0.00022387211385683424
1624.2368790139622	0.0002660725059798809
1639.3852223479123	0.0003162277660168379
1655.517811079107	0.00037583740428844437
1672.2604550378646	0.0004466835921509635
1689.936121807872	0.0005308844442309889
1708.8432153281922	0.000630957344480193
1729.2386946091162	0.0007498942093324559
1751.4232917071092	0.0008912509381337458
1774.974109931496	0.0010592537251772895
1800.5831075175995	0.0012589254117941673
1828.3296932643666	0.0014962356560944345
1858.1977280578715	0.0017782794100389225
1889.4259836640274	0.0021134890398366475
1921.5467702840292	0.002511886431509582
1955.6270392751005	0.0029853826189179603
1991.502714626357	0.0035481338923357567
2028.8497964918038	0.004216965034285822
2065.8258574478186	0.0050118723362727255
2102.500576177711	0.005956621435290103
2139.5304163467417	0.00707945784384138
2176.7854522295993	0.008413951416451957
2214.0      	0.01        
2248.545918416009	0.01188502227437019
2282.716611735588	0.014125375446227554
2316.4584419934813	0.016788040181225587
2349.607273014295	0.01995262314968883
2381.2547008146594	0.023713737056616554
2410.4783669638473	0.02818382931264455
2438.9497225343143	0.033496543915782793
2466.6032924573033	0.03981071705534969
2493.417049971594	0.04731512589614813
2518.4968576985166	0.056234132519034905
2542.7284815552853	0.06683439175686148
2566.853814932681	0.07943282347242821
2590.8888722171087	0.09440608762859228
2614.8413827212307	0.11220184543019629
2637.3811161283543	0.1333521432163324
2659.736635250417	0.1584893192461114
2681.937924006763	0.18836490894898023
2703.8921106117796	0.22387211385683378
2725.2715153168397	0.26607250597988086
2745.2209492120915	0.3162277660168379
2764.8022425112754	0.3758374042884443
2784.066530845858	0.4466835921509634
2803.051513522147	0.5308844442309879
2821.174952149956	0.630957344480193
2838.3673326564303	0.7498942093324559
2855.246342278426	0.8912509381337458
2871.7128535960333	1.0592537251772898
2887.6464465992535	1.2589254117941662
2902.0711869390734	1.4962356560944328
2915.448142338563	1.7782794100389228
2927.9871788531705	2.1134890398366473
2939.5771586603805	2.511886431509582
2950.010125501582	2.9853826189179573
2958.4289637962665	3.548133892335753
2965.8077596298854	4.216965034285823
2972.045129542531	5.011872336272725
2977.0858297430227	5.956621435290109
2980.810128345839	7.079457843841373
2983.1995235737736	8.413951416451948
2985.7      	10.0        
