# T(K)	P(bar)
1031.9      	1e-08       
1035.6700445487404	1.1885022274370215e-08
1039.7017940735313	1.4125375446227554e-08
1043.9497949991421	1.6788040181225588e-08
1048.3608223336696	1.9952623149688826e-08
1052.8137267477914	2.3713737056616554e-08
1057.0628917321264	2.818382931264461e-08
1061.364985222998	3.3496543915782795e-08
1065.667483631658	3.981071705534969e-08
1069.9326179638676	4.731512589614813e-08
1074.2432099169325	5.6234132519034905e-08
1078.6341589988788	6.683439175686162e-08
1083.3637840156543	7.94328234724282e-08
1088.4806822508838	9.440608762859226e-08
1093.960933027122	1.1220184543019653e-07
1099.6165071604112	1.333521432163324e-07
1105.638288036489	1.584893192461114e-07
1112.0439913955527	1.883649089489802e-07
1118.8253650912254	2.2387211385683422e-07
1125.9252420268608	2.6607250597988136e-07
1133.1572450617698	3.162277660168379e-07
1140.6490587999747	3.7583740428844433e-07
1148.3810359400838	4.466835921509635e-07
1156.3223971835423	5.308844442309889e-07
1164.2021531086766	6.309573444801942e-07
1172.0695381491216	7.498942093324558e-07
1180.0664782578172	8.912509381337459e-07
1188.1668897828913	1.0592537251772896e-06
1196.368731181307	1.2589254117941687e-06
1204.356625025401	1.4962356560944327e-06
1212.3604682194762	1.7782794100389227e-06
1220.435281620156	2.1134890398366474e-06
1228.5834410924554	2.511886431509582e-06
1236.8495609743306	2.9853826189179636e-06
1244.7759933120685	3.5481338923357534e-06
1252.8102186577066	4.216965034285822e-06
1261.0127060903897	5.011872336272725e-06
1269.4087685748384	5.95662143529011e-06
1277.7290101343222	7.079457843841388e-06
1285.9775524963375	8.413951416451948e-06
1294.4474977252048	1e-05       
1303.0947775789873	1.188502227437019e-05
1311.8661781387466	1.4125375446227555e-05
1320.5335032292096	1.678804018122562e-05
1329.3320528081256	1.9952623149688786e-05
1338.4076982159572	2.371373705661655e-05
1347.7933538330287	2.818382931264455e-05
1357.5459932385008	3.349654391578279e-05
1367.0942550593095	3.981071705534977e-05
1377.0350465221109	4.731512589614803e-05
1387.3540915356823	5.623413251903491e-05
1398.0154063143689	6.683439175686148e-05
1408.8459165123277	7.943282347242821e-05
1419.5510217388235	9.440608762859246e-05
1430.6218934551757	0.00011220184543019629
1442.0814287451542	0.0001333521432163324
1453.9557276984444	0.00015848931924611142
1465.905963579592	0.00018836490894898024
1477.9489424136705	0.00022387211385683424
1490.318522797968	0.0002660725059798809
1502.9911039900694	0.0003162277660168379
1515.9582975059723	0.00037583740428844437
1528.980353918339	0.0004466835921509635
1542.396039803332	0.0005308844442309889
1556.4018607589237	0.000630957344480193
1571.1016897457018	0.0007498942093324559
1586.558827795928	0.0008912509381337458
1602.0107364698067	0.0010592537251772895
1618.2062999593318	0.0012589254117941673
1635.330300770955	0.0014962356560944345
1653.5100234880338	0.0017782794100389225
1672.3260357266797	0.0021134890398366475
1691.581000814538	0.002511886431509582
1712.0346334657554	0.0029853826189179603
1733.9115971417123	0.0035481338923357567
1757.4721212824932	0.004216965034285822
1782.200837153921	0.0050118723362727255
1808.463131790535	0.005956621435290103
1836.4655174800016	0.00707945784384138
1866.1656729811991	0.008413951416451957
1897.5      	0.01        
1928.8913913446138	0.01188502227437019
1961.8976084092835	0.014125375446227554
1996.4674210839228	0.016788040181225587
2032.3680953479648	0.01995262314968883
2068.4684275624504	0.023713737056616554
2103.5566497839536	0.02818382931264455
2139.0497873821473	0.033496543915782793
2174.7490132022535	0.03981071705534969
2210.4373463674583	0.04731512589614813
2244.686958794536	0.056234132519034905
2277.8605567284617	0.06683439175686148
2310.7203018166597	0.07943282347242821
2343.1010218985166	0.09440608762859228
2374.828086595562	0.11220184543019629
2403.929043768457	0.1333521432163324
2432.1064636812225	0.1584893192461114
2459.475965582211	0.18836490894898023
2485.9928775169624	0.22387211385683378
2511.3609771296824	0.26607250597988086
2535.0225211585275	0.3162277660168379
2558.3512612988916	0.3758374042884443
2581.5022160271133	0.4466835921509634
2604.5933840294247	0.5308844442309879
2626.893093297555	0.630957344480193
2648.1848377731308	0.7498942093324559
2669.2191201967034	0.8912509381337458
2689.8946688753786	1.0592537251772898
2710.087638372159	1.2589254117941662
2728.6226541851534	1.4962356560944328
2746.237712747021	1.7782794100389228
2763.22488800973	2.1134890398366473
2779.5291663188727	2.511886431509582
2795.018109398503	2.9853826189179573
2808.7381243645455	3.548133892335753
2821.7130602319494	4.216965034285823
2833.782776749952	5.011872336272725
2844.795735514101	5.956621435290109
2854.304583010654	7.079457843841373
2862.5396543188363	8.413951416451948
2871.4      	10.0        
