# T(K)	P(bar)
1026.3      	1e-08       
1029.839225494736	1.1885022274370215e-08
1033.6922924103792	1.4125375446227554e-08
1037.8497949991422	1.6788040181225588e-08
1042.2472362205683	1.9952623149688826e-08
1046.620624484438	2.3713737056616554e-08
1051.0033605223855	2.818382931264461e-08
1055.364985222998	3.3496543915782795e-08
1059.7228603724752	3.981071705534969e-08
1064.1326179638677	4.731512589614813e-08
1068.4432099169326	5.6234132519034905e-08
1072.8341589988788	6.683439175686162e-08
1077.4369371577661	7.94328234724282e-08
1082.3153580339333	9.440608762859226e-08
1087.5565239030916	1.1220184543019653e-07
1093.057150799852	1.333521432163324e-07
1098.7510546164583	1.584893192461114e-07
1104.7628014315317	1.883649089489802e-07
1111.1452884007072	2.2387211385683422e-07
1117.8462958455766	2.6607250597988136e-07
1124.6195485684655	3.162277660168379e-07
1131.6939526762644	3.7583740428844433e-07
1139.0304785693725	4.466835921509635e-07
1146.591725268036	5.308844442309889e-07
1154.2350885154165	6.309573444801942e-07
1161.8704340859122	7.498942093324558e-07
1169.6321700737637	8.912509381337459e-07
1177.5427045889412	1.0592537251772896e-06
1185.664180393139	1.2589254117941687e-06
1193.5745218698146	1.4962356560944327e-06
1201.500657848413	1.7782794100389227e-06
1209.5738628125105	2.1134890398366474e-06
1217.7834410924554	2.511886431509582e-06
1226.0495609743307	2.9853826189179636e-06
1233.9759933120686	3.5481338923357534e-06
1242.1172131947496	4.216965034285822e-06
1250.3802041276242	5.011872336272725e-06
1258.7212330374562	5.95662143529011e-06
1267.1207149927443	7.079457843841388e-06
1275.3775524963376	8.413951416451948e-06
1283.8002729754323	1e-05       
1292.421335171455	1.188502227437019e-05
1301.259275632992	1.4125375446227555e-05
1309.848516713631	1.678804018122562e-05
1318.6320528081255	1.9952623149688786e-05
1327.7076982159572	2.371373705661655e-05
1337.0727476030036	2.818382931264455e-05
1346.7471706033273	3.349654391578279e-05
1356.372434535594	3.981071705534977e-05
1366.2789608901564	4.731512589614803e-05
1376.5540915356823	5.623413251903491e-05
1387.215406314369	6.683439175686148e-05
1398.0459165123277	7.943282347242821e-05
1408.7510217388235	9.440608762859246e-05
1419.8716969059112	0.00011220184543019629
1431.3814287451542	0.0001333521432163324
1443.2646469596186	0.00015848931924611142
1455.2935028136685	0.00018836490894898024
1467.4139997368352	0.00022387211385683424
1479.9055482419676	0.0002660725059798809
1492.7369562135484	0.0003162277660168379
1505.8549743065319	0.00037583740428844437
1518.799518478349	0.0004466835921509635
1532.137441873428	0.0005308844442309889
1546.0644878976111	0.000630957344480193
1560.6503681434372	0.0007498942093324559
1575.8672397991002	0.0008912509381337458
1591.0881881642872	0.0010592537251772895
1607.049812282185	0.0012589254117941673
1623.874071864934	0.0014962356560944345
1641.6417035681675	0.0017782794100389225
1659.9833625570996	0.0021134890398366475
1678.7074270866424	0.002511886431509582
1698.5204107001143	0.0029853826189179603
1719.6070109578063	0.0035481338923357567
1742.199447539047	0.004216965034285822
1765.914052034044	0.0050118723362727255
1791.1059113106878	0.005956621435290103
1818.087294083915	0.00707945784384138
1846.8517336423993	0.008413951416451957
1877.3      	0.01        
1907.7681151285958	0.01188502227437019
1939.8953492619469	0.014125375446227554
1973.6647273567903	0.016788040181225587
2008.9137508955596	0.01995262314968883
2044.696018509037	0.023713737056616554
2079.756649783954	0.02818382931264455
2115.249787382147	0.033496543915782793
2151.0043899430707	0.03981071705534969
2186.8766752732645	0.04731512589614813
2221.5181596960756	0.056234132519034905
2255.079342605556	0.06683439175686148
2288.3739955324363	0.07943282347242821
2321.2752198103854	0.09440608762859228
2353.6478552410795	0.11220184543019629
2383.4435302244683	0.1333521432163324
2412.4370004803613	0.1584893192461114
2440.6383455102527	0.18836490894898023
2467.953030897999	0.22387211385683378
2494.118869492251	0.26607250597988086
2518.3331670673824	0.3162277660168379
2542.2594310968275	0.3758374042884443
2565.9828848719667	0.4466835921509634
2589.5649518322725	0.5308844442309879
2612.416244015162	0.630957344480193
2634.3157819416892	0.7498942093324559
2656.0220447488637	0.8912509381337458
2677.4848912027774	1.0592537251772898
2698.646798618343	1.2589254117941662
2718.1899952077765	1.4962356560944328
2736.934868312964	1.7782794100389228
2755.1807682797557	2.1134890398366473
2772.8948830358545	2.511886431509582
2789.9888979372076	2.9853826189179573
2805.5500063013383	3.548133892335753
2820.7714755561133	4.216965034285823
2835.5828552605767	5.011872336272725
2849.931423107594	5.956621435290109
2863.4815307901818	7.079457843841373
2877.172937797646	8.413951416451948
2892.6      	10.0        
