# T(K)	P(bar)
987.1       	1e-08       
987.2538793693363	1.1885022274370215e-08
987.4095016631521	1.4125375446227554e-08
987.6008979090441	1.6788040181225588e-08
987.8543444524049	1.9952623149688826e-08
988.1724090534137	2.3713737056616554e-08
988.4809375805183	2.818382931264461e-08
988.842271383909	3.3496543915782795e-08
989.2938185928605	3.981071705534969e-08
989.8707920304511	4.731512589614813e-08
990.5761616227708	5.6234132519034905e-08
991.3375717541893	6.683439175686162e-08
992.249669717516	7.94328234724282e-08
993.3483958237374	9.440608762859226e-08
994.641886678292	1.1220184543019653e-07
996.1138854253126	1.333521432163324e-07
997.8212737321423	1.584893192461114e-07
999.8146637985176	1.883649089489802e-07
1002.1445214955244	2.2387211385683422e-07
1004.8568340327334	2.6607250597988136e-07
1007.9179766220298	3.162277660168379e-07
1011.3979975628743	3.7583740428844433e-07
1015.3260196036821	4.466835921509635e-07
1019.7338862537963	5.308844442309889e-07
1024.6193349273794	6.309573444801942e-07
1029.746657411678	7.498942093324558e-07
1035.2233964172829	8.912509381337459e-07
1040.9171487704439	1.0592537251772896e-06
1046.609453595426	1.2589254117941687e-06
1051.883014579876	1.4962356560944327e-06
1056.7484326348354	1.7782794100389227e-06
1061.2062220024325	2.1134890398366474e-06
1065.1497192698125	2.511886431509582e-06
1068.4401165043453	2.9853826189179636e-06
1070.9913376630898	3.5481338923357534e-06
1073.1374317130355	4.216965034285822e-06
1074.885035329781	5.011872336272725e-06
1076.2371090887925	5.95662143529011e-06
1077.1087534426433	7.079457843841388e-06
1077.5447454437542	8.413951416451948e-06
1077.51110100091	1e-05       
1077.06098166779	1.188502227437019e-05
1076.3033649194374	1.4125375446227555e-05
1075.2101887819015	1.678804018122562e-05
1073.873886398717	1.9952623149688786e-05
1072.3370798073922	2.371373705661655e-05
1070.6672691694744	2.818382931264455e-05
1068.9776300682943	3.349654391578279e-05
1067.5145899505897	3.981071705534977e-05
1066.3148011526391	4.731512589614803e-05
1065.385061475029	5.623413251903491e-05
1064.7555425077712	6.683439175686148e-05
1064.516634194581	7.943282347242821e-05
1064.5715900844518	9.440608762859246e-05
1064.4505896477935	0.00011220184543019629
1064.0396428465785	0.0001333521432163324
1063.2394532988685	0.00015848931924611142
1061.824293786627	0.00018836490894898024
1059.4531083355696	0.00022387211385683424
1056.4724656760084	0.0002660725059798809
1053.2975860891152	0.0003162277660168379
1050.5302128117535	0.00037583740428844437
1048.9024557602077	0.0004466835921509635
1047.8554227710538	0.0005308844442309889
1048.0353386423171	0.000630957344480193
1049.7158592271776	0.0007498942093324559
1052.5990559619347	0.0008912509381337458
1055.964041814286	0.0010592537251772895
1060.073265865791	0.0012589254117941673
1065.0184504655015	0.0014962356560944345
1070.7539989983302	0.0017782794100389225
1076.683414619752	0.0021134890398366475
1082.8122711759484	0.002511886431509582
1089.4041534011967	0.0029853826189179603
1096.5366894712479	0.0035481338923357567
1104.370834554887	0.004216965034285822
1113.7318626450174	0.0050118723362727255
1124.2109747641987	0.005956621435290103
1135.6973483001093	0.00707945784384138
1148.0312939587998	0.008413951416451957
1161.0      	0.01        
1174.3875051322618	0.01188502227437019
1188.4741530099957	0.014125375446227554
1203.8292209967408	0.016788040181225587
1220.7840476739823	0.01995262314968883
1238.8342137812253	0.023713737056616554
1257.8883643872625	0.02818382931264455
1277.510477749009	0.033496543915782793
1297.643599565429	0.03981071705534969
1318.5496134121122	0.04731512589614813
1340.9646915680491	0.056234132519034905
1364.4096956781907	0.06683439175686148
1388.8189200782713	0.07943282347242821
1414.5122849493373	0.09440608762859228
1442.3698204027655	0.11220184543019629
1472.9374040644802	0.1333521432163324
1505.805578220806	0.1584893192461114
1540.978190668344	0.18836490894898023
1578.5717304042423	0.22387211385683378
1618.7777750734595	0.26607250597988086
1661.2410267995608	0.3162277660168379
1705.180055653459	0.3758374042884443
1750.0430943645194	0.4466835921509634
1795.4481118898623	0.5308844442309879
1840.5203157816302	0.630957344480193
1883.7006197148203	0.7498942093324559
1927.3813222339413	0.8912509381337458
1972.566005206249	1.0592537251772898
2020.539809156546	1.2589254117941662
2070.6386385088244	1.4962356560944328
2121.8542760146856	1.7782794100389228
2172.6904076062533	2.1134890398366473
2221.6594981056746	2.511886431509582
2267.5645522069613	2.9853826189179573
2305.694569865649	3.548133892335753
2341.178306343863	4.216965034285823
2374.5982909945437	5.011872336272725
2406.6362114955937	5.956621435290109
2437.3814850677804	7.079457843841373
2466.8696028140616	8.413951416451948
2501.9      	10.0        
