# T(K)	P(bar)
2246.6      	1e-08       
2240.5987045958827	1.1885022274370215e-08
2235.8434550948928	1.4125375446227554e-08
2232.1219598187745	1.6788040181225588e-08
2229.2195888331653	1.9952623149688826e-08
2226.9931366261044	2.3713737056616554e-08
2225.2548433071493	2.818382931264461e-08
2223.727823017928	3.3496543915782795e-08
2222.3292977030533	3.981071705534969e-08
2220.9741475014202	4.731512589614813e-08
2219.720157115074	5.6234132519034905e-08
2218.4798851932974	6.683439175686162e-08
2217.13891885267	7.94328234724282e-08
2215.686279959312	9.440608762859226e-08
2214.151499635662	1.1220184543019653e-07
2212.4470800338486	1.333521432163324e-07
2210.6212795838514	1.584893192461114e-07
2208.5853362014823	1.883649089489802e-07
2206.335555194994	2.2387211385683422e-07
2204.022112148551	2.6607250597988136e-07
2201.4926692868253	3.162277660168379e-07
2198.7632359092877	3.7583740428844433e-07
2195.8256525084516	4.466835921509635e-07
2192.6296972955706	5.308844442309889e-07
2189.0050095700085	6.309573444801942e-07
2185.0488629043693	7.498942093324558e-07
2180.5690669242467	8.912509381337459e-07
2175.5312216174557	1.0592537251772896e-06
2169.945038522894	1.2589254117941687e-06
2163.89595386426	1.4962356560944327e-06
2157.29649771753	1.7782794100389227e-06
2150.0576243416162	2.1134890398366474e-06
2142.088558056601	2.511886431509582e-06
2133.2606630371224	2.9853826189179636e-06
2123.6631149125383	3.5481338923357534e-06
2113.056885138479	4.216965034285822e-06
2101.202180069204	5.011872336272725e-06
2087.8192876400553	5.95662143529011e-06
2072.684372041376	7.079457843841388e-06
2055.3106586760623	8.413951416451948e-06
2035.2131938125567	1e-05       
2012.0156672630385	1.188502227437019e-05
1985.2182901809472	1.4125375446227555e-05
1953.750434221879	1.678804018122562e-05
1914.85501996258	1.9952623149688786e-05
1866.600359330716	2.371373705661655e-05
1805.3234696553693	2.818382931264455e-05
1722.2668413764648	3.349654391578279e-05
1399.6279943668837	3.981071705534977e-05
1298.1606718801718	4.731512589614803e-05
1283.616304636727	5.623413251903491e-05
1270.8443400621702	6.683439175686148e-05
1268.933073556648	7.943282347242821e-05
1270.947702533559	9.440608762859246e-05
1275.0372242978071	0.00011220184543019629
1280.7010715259985	0.0001333521432163324
1287.5008453785717	0.00015848931924611142
1295.4414626417026	0.00018836490894898024
1304.441821456582	0.00022387211385683424
1314.2566538599738	0.0002660725059798809
1324.7638034200595	0.0003162277660168379
1335.8851871182856	0.00037583740428844437
1347.2019742385567	0.0004466835921509635
1359.1998749949607	0.0005308844442309889
1371.9412678392323	0.000630957344480193
1385.5819393404174	0.0007498942093324559
1400.4784558033296	0.0008912509381337458
1417.2460263029238	0.0010592537251772895
1434.7930634631643	0.0012589254117941673
1453.1052501454062	0.0014962356560944345
1472.3377565542553	0.0017782794100389225
1492.734946291947	0.0021134890398366475
1516.7814313140939	0.002511886431509582
1542.2881680735047	0.0029853826189179603
1569.0599102432343	0.0035481338923357567
1597.926810156741	0.004216965034285822
1633.1866826295654	0.0050118723362727255
1667.847365252291	0.005956621435290103
1706.2613852768504	0.00707945784384138
1747.613330907199	0.008413951416451957
1786.6      	0.01        
1826.685575712117	0.01188502227437019
1859.5053159989043	0.014125375446227554
1888.3032595400744	0.016788040181225587
1915.6698312103092	0.01995262314968883
1941.8306446432737	0.023713737056616554
1961.6585987823921	0.02818382931264455
1978.645492526011	0.033496543915782793
1993.7008415623293	0.03981071705534969
2007.829317016248	0.04731512589614813
2021.074590472029	0.056234132519034905
2031.752189979879	0.06683439175686148
2041.024204598016	0.07943282347242821
2049.529897071244	0.09440608762859228
2058.1547958755577	0.11220184543019629
2067.1089365441408	0.1333521432163324
2076.4359047905277	0.1584893192461114
2086.310939064546	0.18836490894898023
2097.0023007155482	0.22387211385683378
2108.9683854385294	0.26607250597988086
2120.7612605792638	0.3162277660168379
2131.9409290143967	0.3758374042884443
2142.373599845356	0.4466835921509634
2151.9939649863904	0.5308844442309879
2160.425303826284	0.630957344480193
2167.506753875214	0.7498942093324559
2173.947243390705	0.8912509381337458
2179.9897043522933	1.0592537251772898
2185.932207536266	1.2589254117941662
2191.5935303578085	1.4962356560944328
2197.4455882007783	1.7782794100389228
2203.509333003649	2.1134890398366473
2209.817724375474	2.511886431509582
2216.4787724356256	2.9853826189179573
2222.715101536675	3.548133892335753
2228.658797870585	4.216965034285823
2234.2776315052965	5.011872336272725
2239.585261144903	5.956621435290109
2244.5774060805934	7.079457843841373
2249.167996236298	8.413951416451948
2254.0      	10.0        
