# T(K)	P(bar)
2247.8      	1e-08       
2241.7987045958826	1.1885022274370215e-08
2237.0434550948926	1.4125375446227554e-08
2233.3219598187743	1.6788040181225588e-08
2230.4331749462667	1.9952623149688826e-08
2228.2862388894578	2.3713737056616554e-08
2226.5548433071494	2.818382931264461e-08
2225.0762772947096	3.3496543915782795e-08
2223.729297703053	3.981071705534969e-08
2222.3820132825817	4.731512589614813e-08
2221.206397295382	5.6234132519034905e-08
2219.9798851932974	6.683439175686162e-08
2218.681201138633	7.94328234724282e-08
2217.308054698295	9.440608762859226e-08
2215.8537041976774	1.1220184543019653e-07
2214.2267582141285	1.333521432163324e-07
2212.4212795838516	1.584893192461114e-07
2210.494050179895	1.883649089489802e-07
2208.435555194994	2.2387211385683422e-07
2206.122112148551	2.6607250597988136e-07
2203.738568117927	3.162277660168379e-07
2201.165278358772	3.7583740428844433e-07
2198.355763982594	4.466835921509635e-07
2195.250145239241	5.308844442309889e-07
2191.7830526321823	6.309573444801942e-07
2187.981598946509	7.498942093324558e-07
2183.7033751083	8.912509381337459e-07
2178.9037771993058	1.0592537251772896e-06
2173.563241675566	1.2589254117941687e-06
2167.8243664866054	1.4962356560944327e-06
2161.5357392017813	1.7782794100389227e-06
2154.611949111034	2.1134890398366474e-06
2147.0165589075445	2.511886431509582e-06
2138.7504390256695	2.9853826189179636e-06
2129.691580477436	3.5481338923357534e-06
2119.7383605551718	4.216965034285822e-06
2108.659701659626	5.011872336272725e-06
2096.2311835045534	5.95662143529011e-06
2082.4433546345517	7.079457843841388e-06
2066.865436806082	8.413951416451948e-06
2048.977161055505	1e-05       
2028.3982981843458	1.188502227437019e-05
2004.7393430319698	1.4125375446227555e-05
1978.0346116721653	1.678804018122562e-05
1945.9358354359465	1.9952623149688786e-05
1907.2408006789701	2.371373705661655e-05
1859.2598714110013	2.818382931264455e-05
1797.5777432894438	3.349654391578279e-05
1704.559192648018	3.981071705534977e-05
1476.6843243880287	4.731512589614803e-05
1311.586427586785	5.623413251903491e-05
1295.55483792742	6.683439175686148e-05
1282.4148807019553	7.943282347242821e-05
1281.1420495777402	9.440608762859246e-05
1283.2909587338327	0.00011220184543019629
1287.7985715177817	0.0001333521432163324
1294.0830068562238	0.00015848931924611142
1301.86638417355	0.00018836490894898024
1310.7117068102527	0.00022387211385683424
1320.3696284159741	0.0002660725059798809
1330.7179511965803	0.0003162277660168379
1341.6785407194047	0.00037583740428844437
1352.8403033585762	0.0004466835921509635
1364.6826791351523	0.0005308844442309889
1377.3412678392322	0.000630957344480193
1391.0674753441922	0.0007498942093324559
1406.364435798043	0.0008912509381337458
1422.9234779974042	0.0010592537251772895
1440.2365757860173	0.0012589254117941673
1458.374004364202	0.0014962356560944345
1477.5833031674995	0.0017782794100389225
1498.2967284050003	0.0021134890398366475
1522.7196982625908	0.002511886431509582
1548.2961185700292	0.0029853826189179603
1575.2644964271403	0.0035481338923357567
1605.0715324604002	0.004216965034285822
1640.9554734725666	0.0050118723362727255
1676.2372055264896	0.005956621435290103
1715.678720370981	0.00707945784384138
1757.918840599199	0.008413951416451957
1796.1      	0.01        
1835.8008772887763	0.01188502227437019
1866.5342860621658	0.014125375446227554
1893.333300540246	0.016788040181225587
1919.6573506089806	0.01995262314968883
1943.989292586145	0.023713737056616554
1962.8860204359669	0.02818382931264455
1979.4485839724475	0.033496543915782793
1994.428529932738	0.03981071705534969
2008.6371827974092	0.04731512589614813
2021.9608306523369	0.056234132519034905
2032.8434615061358	0.06683439175686148
2042.4356160278298	0.07943282347242821
2051.2952212881946	0.09440608762859228
2060.1613854240636	0.11220184543019629
2069.3470986961447	0.1333521432163324
2079.0225124265003	0.1584893192461114
2089.2921290285667	0.18836490894898023
2100.3983927441705	0.22387211385683378
2112.8431208560705	0.26607250597988086
2125.0989570725683	0.3162277660168379
2136.8490988123326	0.3758374042884443
2147.9446031126363	0.4466835921509634
2158.285980732909	0.5308844442309879
2167.426497606065	0.630957344480193
2175.336802106982	0.7498942093324559
2182.684476126919	0.8912509381337458
2189.6557414857425	1.0592537251772898
2196.4959185706184	1.2589254117941662
2203.242974536018	1.4962356560944328
2210.182933395659	1.7782794100389228
2217.388050888966	2.1134890398366473
2224.8005827339643	2.511886431509582
2232.264166704978	2.9853826189179573
2239.043567101573	3.548133892335753
2245.5332787502352	4.216965034285823
2251.705145244656	5.011872336272725
2257.5725123832253	5.956621435290109
2263.1193400895477	7.079457843841373
2268.526436212557	8.413951416451948
2274.2      	10.0        
