# T(K)	P(bar)
833.8       	1e-08       
834.261638108009	1.1885022274370215e-08
834.7832558210324	1.4125375446227554e-08
835.4026937271324	1.6788040181225588e-08
836.1222750179112	1.9952623149688826e-08
836.8379203701808	2.3713737056616554e-08
837.6725783464252	2.818382931264461e-08
838.5814513213815	3.3496543915782795e-08
839.587637185721	3.981071705534969e-08
840.7179867174185	4.731512589614813e-08
841.8936027046179	5.6234132519034905e-08
843.1201148067029	6.683439175686162e-08
844.4610811473298	7.94328234724282e-08
845.9137200406882	9.440608762859226e-08
847.4485003643382	1.1220184543019653e-07
849.1529199661513	1.333521432163324e-07
850.9787204161486	1.584893192461114e-07
853.0146637985175	1.883649089489802e-07
855.2804601431096	2.2387211385683422e-07
857.6736770877059	2.6607250597988136e-07
860.2802801287253	3.162277660168379e-07
863.0877853154542	3.7583740428844433e-07
866.1044589656904	4.466835921509635e-07
869.3396307889233	5.308844442309889e-07
872.7279258367311	6.309573444801942e-07
876.2529289692117	7.498942093324558e-07
879.9489309448552	8.912509381337459e-07
883.8092596974957	1.0592537251772896e-06
887.8411917729055	1.2589254117941687e-06
891.95146724608	1.4962356560944327e-06
896.249380779521	1.7782794100389227e-06
900.7377091565593	2.1134890398366474e-06
905.4337218226431	2.511886431509582e-06
910.4094444699854	2.9853826189179636e-06
915.3316851647804	3.5481338923357534e-06
920.4308197224141	4.216965034285822e-06
925.6451295425308	5.011872336272725e-06
930.9475834579906	5.95662143529011e-06
936.3359303727038	7.079457843841388e-06
941.5885380350556	8.413951416451948e-06
947.0057324840765	1e-05       
952.6121466576797	1.188502227437019e-05
958.4176879315855	1.4125375446227555e-05
964.2739886683847	1.678804018122562e-05
970.3423874722974	1.9952623149688786e-05
976.7105893326876	2.371373705661655e-05
983.4133482422028	2.818382931264455e-05
990.508317564049	3.349654391578279e-05
997.5925118181973	3.981071705534977e-05
1004.8720494037087	4.731512589614803e-05
1012.3943374357983	5.623413251903491e-05
1020.1819164076243	6.683439175686148e-05
1028.1455268472998	7.943282347242821e-05
1036.0737786985526	9.440608762859246e-05
1044.229362327227	0.00011220184543019629
1052.5953572684562	0.0001333521432163324
1061.1811187291376	0.00015848931924611142
1069.829315748389	0.00018836490894898024
1078.4213628712655	0.00022387211385683424
1087.260450307977	0.0002660725059798809
1096.31357673831	0.0003162277660168379
1105.4788447361955	0.00037583740428844437
1114.315240158873	0.0004466835921509635
1123.3559577987924	0.0005308844442309889
1132.6099976349067	0.000630957344480193
1142.0357568898369	0.0007498942093324559
1151.5663238741733	0.0008912509381337458
1160.7277494522737	0.0010592537251772895
1170.163832203974	0.0012589254117941673
1179.9994599941433	0.0014962356560944345
1190.3030382370607	0.0017782794100389225
1200.7388097307635	0.0021134890398366475
1211.3361677785108	0.002511886431509582
1222.6116632572082	0.0029853826189179603
1234.5342382087856	0.0035481338923357567
1246.983265497268	0.004216965034285822
1259.308619149273	0.0050118723362727255
1271.7580355182447	0.005956621435290103
1284.4958677968486	0.00707945784384138
1297.4507429895996	0.008413951416451957
1310.5      	0.01        
1322.9642289162437	0.01188502227437019
1335.5696347153223	0.014125375446227554
1348.3484870883829	0.016788040181225587
1361.2466058699965	0.01995262314968883
1373.8101576098397	0.023713737056616554
1385.8565656402127	0.02818382931264455
1398.1557757315215	0.033496543915782793
1410.6470741541564	0.03981071705534969
1423.250659204636	0.04731512589614813
1435.7121886689504	0.056234132519034905
1448.2924195932846	0.06683439175686148
1461.3034240417446	0.07943282347242821
1474.6799308882262	0.09440608762859228
1488.2821938133363	0.11220184543019629
1501.713404816211	0.1333521432163324
1515.617874895	0.1584893192461114
1529.8590766975599	0.18836490894898023
1544.2987761967618	0.22387211385683378
1558.7378517624923	0.26607250597988086
1573.068591292438	0.3162277660168379
1587.794032700981	0.3758374042884443
1603.0620718801677	0.4466835921509634
1619.139049831958	0.5308844442309879
1636.3957153080019	0.630957344480193
1655.060165162106	0.7498942093324559
1675.5220447488637	0.8912509381337458
1698.0006693486737	1.0592537251772898
1722.7609203416337	1.2589254117941662
1749.3613823661408	1.4962356560944328
1778.1083202617665	1.7782794100389228
1809.2340324423965	2.1134890398366473
1842.8103402962377	2.511886431509582
1878.8442026939258	2.9853826189179573
1916.2661043007508	3.548133892335753
1956.5000550478337	4.216965034285823
2000.373663920011	5.011872336272725
2049.112659369639	5.956621435290109
2104.5016960370585	7.079457843841373
2185.592404915894	8.413951416451948
2290.2      	10.0        
