# T(K)	P(bar)
833.6       	1e-08       
834.0616381080091	1.1885022274370215e-08
834.5832558210325	1.4125375446227554e-08
835.1690610907843	1.6788040181225588e-08
835.8358611310125	1.9952623149688826e-08
836.6310226335343	2.3713737056616554e-08
837.4725783464253	2.818382931264461e-08
838.3814513213814	3.3496543915782795e-08
839.3599488153124	3.981071705534969e-08
840.4179867174184	4.731512589614813e-08
841.5936027046179	5.6234132519034905e-08
842.8201148067028	6.683439175686162e-08
844.118798861367	7.94328234724282e-08
845.5354947796717	9.440608762859226e-08
847.1462958023228	1.1220184543019653e-07
848.7732417858717	1.333521432163324e-07
850.5787204161486	1.584893192461114e-07
852.5784258057133	1.883649089489802e-07
854.7964754812133	2.2387211385683422e-07
857.2694663239628	2.6607250597988136e-07
859.8073307131746	3.162277660168379e-07
862.5877853154542	3.7583740428844433e-07
865.6044589656904	4.466835921509635e-07
868.8396307889233	5.308844442309889e-07
872.2279258367311	6.309573444801942e-07
875.686560948142	7.498942093324558e-07
879.3489309448552	8.912509381337459e-07
883.2092596974957	1.0592537251772896e-06
887.2366409847375	1.2589254117941687e-06
891.2693640904937	1.4962356560944327e-06
895.4895704084581	1.7782794100389227e-06
899.9377091565593	2.1134890398366474e-06
904.615435986794	2.511886431509582e-06
909.5109050430501	2.9853826189179636e-06
914.4316851647804	3.5481338923357534e-06
919.4773224538926	4.216965034285822e-06
924.6451295425308	5.011872336272725e-06
929.9351189953732	5.95662143529011e-06
935.2442255142818	7.079457843841388e-06
940.4885380350556	8.413951416451948e-06
945.8585077343039	1e-05       
951.359031472744	1.188502227437019e-05
957.010785425831	1.4125375446227555e-05
962.7890021528063	1.678804018122562e-05
968.7798256055596	1.9952623149688786e-05
975.0694978949443	2.371373705661655e-05
981.6927420121777	2.818382931264455e-05
988.7059628343958	3.349654391578279e-05
995.6361528656278	3.981071705534977e-05
1002.8159637717544	4.731512589614803e-05
1010.2243510969158	5.623413251903491e-05
1017.8522780794717	6.683439175686148e-05
1025.656616310354	7.943282347242821e-05
1033.4305985296487	9.440608762859246e-05
1041.3799519750205	0.00011220184543019629
1049.5375001232512	0.0001333521432163324
1057.9543609456157	0.00015848931924611142
1066.3666980461603	0.00018836490894898024
1074.7261909017718	0.00022387211385683424
1083.3299121419775	0.0002660725059798809
1092.1447984030913	0.0003162277660168379
1101.0655519384343	0.00037583740428844437
1109.5918983989125	0.0004466835921509635
1118.204370219367	0.0005308844442309889
1126.98576046703	0.000630957344480193
1135.9331136853073	0.0007498942093324559
1144.9831478805174	0.0008912509381337458
1153.608470072728	0.0010592537251772895
1162.4465317315821	0.0012589254117941673
1171.6182479633053	0.0014962356560944345
1181.2233316638833	0.0017782794100389225
1191.10569103292	0.0021134890398366475
1200.891980491818	0.002511886431509582
1211.2133414846155	0.0029853826189179603
1222.0788876608954	0.0035481338923357567
1233.399411177907	0.004216965034285822
1244.5546363186459	0.0050118723362727255
1255.8395850041225	0.005956621435290103
1267.4379405014138	0.00707945784384138
1279.3368036507998	0.008413951416451957
1291.5      	0.01        
1303.0409527002257	0.01188502227437019
1315.0411297258659	0.014125375446227554
1327.4139565429905	0.016788040181225587
1340.0601919830979	0.01995262314968883
1352.703259873193	0.023713737056616554
1365.3184408012494	0.02818382931264455
1378.437227052903	0.033496543915782793
1392.045464821512	0.03981071705534969
1406.1237063901829	0.04731512589614813
1420.3094726357233	0.056234132519034905
1434.9138633295954	0.06683439175686148
1450.0450457627394	0.07943282347242821
1465.6331730577338	0.09440608762859228
1481.650285814563	0.11220184543019629
1497.4744137202488	0.1333521432163324
1513.8521637652225	0.1584893192461114
1530.6549304600985	0.18836490894898023
1547.743297692286	0.22387211385683378
1564.8946857952255	0.26607250597988086
1581.8488714211633	0.3162277660168379
1599.2797755669512	0.3758374042884443
1617.346084949289	0.4466835921509634
1636.2866648743623	0.5308844442309879
1656.222447364952	0.630957344480193
1677.5830458995497	0.7498942093324559
1700.744204168136	0.8912509381337458
1725.850410361121	1.0592537251772898
1753.0837916221706	1.2589254117941662
1781.778167566974	1.4962356560944328
1812.204527683024	1.7782794100389228
1844.5198443659413	2.1134890398366473
1878.7103402962377	2.511886431509582
1914.744202693926	2.9853826189179573
1951.1846682516548	3.548133892335753
1989.7091260662767	4.216965034285823
2031.008581483855	5.011872336272725
2076.077540374266	5.956621435290109
2126.1574705227767	7.079457843841373
2197.384277934533	8.413951416451948
2297.9      	10.0        
