# T(K)	P(bar)
1277.4      	1e-08       
1279.5543111707088	1.1885022274370215e-08
1282.1710299367383	1.4125375446227554e-08
1285.3134686356618	1.6788040181225588e-08
1289.033650107467	1.9952623149688826e-08
1293.3275222210846	2.3713737056616554e-08
1298.4057044736812	2.818382931264461e-08
1304.2763421425427	3.3496543915782795e-08
1311.1134603000469	3.981071705534969e-08
1319.1124306147028	4.731512589614813e-08
1328.203860915712	5.6234132519034905e-08
1338.5347330323928	6.683439175686162e-08
1350.3074480400053	7.94328234724282e-08
1363.6283267119634	9.440608762859226e-08
1378.562958023228	1.1220184543019653e-07
1394.8324178587172	1.333521432163324e-07
1412.1978439534118	1.584893192461114e-07
1430.814546229833	1.883649089489802e-07
1450.6960185831579	2.2387211385683422e-07
1471.5967798992986	2.6607250597988136e-07
1492.834038692005	3.162277660168379e-07
1514.6369641525034	3.7583740428844433e-07
1537.2226619236824	4.466835921509635e-07
1560.8183114098044	5.308844442309889e-07
1584.851566981464	6.309573444801942e-07
1608.508614447365	7.498942093324558e-07
1632.3203571947136	8.912509381337459e-07
1656.3522989607739	1.0592537251772896e-06
1680.7333809332326	1.2589254117941687e-06
1703.4562245868199	1.4962356560944327e-06
1724.968420929102	1.7782794100389227e-06
1745.892528819808	2.1134890398366474e-06
1766.4446023056666	2.511886431509582e-06
1786.829014441553	2.9853826189179636e-06
1806.451245578422	3.5481338923357534e-06
1826.5022952785275	4.216965034285822e-06
1847.0155142445917	5.011872336272725e-06
1868.0529404441102	5.95662143529011e-06
1889.3686069155492	7.079457843841388e-06
1910.2162539627209	8.413951416451948e-06
1931.020109190173	1e-05       
1951.672186079282	1.188502227437019e-05
1972.1049189213552	1.4125375446227555e-05
1991.3916693478805	1.678804018122562e-05
2010.61534295101	1.9952623149688786e-05
2029.803036496117	2.371373705661655e-05
2048.739432905757	2.818382931264455e-05
2067.260197626683	3.349654391578279e-05
2084.2776642589306	3.981071705534977e-05
2101.214496502139	4.731512589614803e-05
2117.8735997354497	5.623413251903491e-05
2133.986002846333	6.683439175686148e-05
2148.9575904729236	7.943282347242821e-05
2162.4566746946425	9.440608762859246e-05
2175.4681590191503	0.00011220184543019629
2187.852500172552	0.0001333521432163324
2199.4149076467475	0.00015848931924611142
2209.242404259533	0.00018836490894898024
2217.500904285949	0.00022387211385683424
2224.7115559259832	0.0002660725059798809
2230.821418927853	0.0003162277660168379
2235.7229583792914	0.00037583740428844437
2238.5909112796344	0.0004466835921509635
2239.4171958598085	0.0005308844442309889
2238.3414412993043	0.000630957344480193
2235.2024959471546	0.0007498942093324559
2229.596280074016	0.0008912509381337458
2219.756240094155	0.0010592537251772895
2205.393700040668	0.0012589254117941673
2184.5514512657396	0.0014962356560944345
2155.445793063999	0.0017782794100389225
2117.5765919618507	0.0021134890398366475
2026.6742747436244	0.002511886431509582
1821.597908564837	0.0029853826189179603
1613.7884293468496	0.0035481338923357567
1569.9367403661897	0.004216965034285822
1602.5443215468106	0.0050118723362727255
1619.5641856896186	0.005956621435290103
1634.5283172302184	0.00707945784384138
1650.9980706979998	0.008413951416451957
1665.9      	0.01        
1676.132978060867	0.01188502227437019
1687.5768772311378	0.014125375446227554
1699.4776301795102	0.016788040181225587
1711.134125268668	0.01995262314968883
1721.8688055527111	0.023713737056616554
1734.5993783817676	0.02818382931264455
1750.1630323384284	0.033496543915782793
1768.1005856388908	0.03981071705534969
1787.5507137279853	0.04731512589614813
1806.9875647163503	0.056234132519034905
1828.698309345231	0.06683439175686148
1852.2075086484574	0.07943282347242821
1876.9154933018624	0.09440608762859228
1902.146815497324	0.11220184543019629
1928.3917105604125	0.1333521432163324
1955.8064636812226	0.1584893192461114
1983.755773467078	0.18836490894898023
2011.741306983865	0.22387211385683378
2039.3430757448748	0.26607250597988086
2065.8216495339047	0.3162277660168379
2091.1716857937317	0.3758374042884443
2115.1215471822597	0.4466835921509634
2137.4968888461976	0.5308844442309879
2157.511468896039	0.630957344480193
2174.8345966142906	0.7498942093324559
2190.527107411314	0.8912509381337458
2204.718001419886	1.0592537251772898
2217.637110343524	1.2589254117941662
2228.4944417820984	1.4962356560944328
2237.579140816916	1.7782794100389228
2245.086495388358	2.1134890398366473
2250.9874351358503	2.511886431509582
2255.321129054503	2.9853826189179573
2257.96683274379	3.548133892335753
2259.7629508333857	4.216965034285823
2260.8925176648904	5.011872336272725
2261.5373933878527	5.956621435290109
2261.7751145752663	7.079457843841373
2261.868949088751	8.413951416451948
2261.9      	10.0        
