# T(K)	P(bar)
1262.7      	1e-08       
1268.0088382421038	1.1885022274370215e-08
1273.2135548840201	1.4125375446227554e-08
1278.3188560899266	1.6788040181225588e-08
1283.2608223336697	1.9952623149688826e-08
1287.7137267477913	2.3713737056616554e-08
1291.4712509662195	2.818382931264461e-08
1294.886625348053	3.3496543915782795e-08
1297.996781334711	3.981071705534969e-08
1300.8831681218041	4.731512589614813e-08
1303.7046464910832	5.6234132519034905e-08
1306.4315011396625	6.683439175686162e-08
1309.2221622946595	7.94328234724282e-08
1312.1709895593433	9.440608762859226e-08
1315.3970007286764	1.1220184543019653e-07
1318.8058399323027	1.333521432163324e-07
1322.4574408322972	1.584893192461114e-07
1326.4206136186226	1.883649089489802e-07
1330.6968589338048	2.2387211385683422e-07
1335.1641972303846	2.6607250597988136e-07
1339.7769649330446	3.162277660168379e-07
1344.6143371587464	3.7583740428844433e-07
1349.7174687675315	4.466835921509635e-07
1355.1054540566442	5.308844442309889e-07
1360.542485644987	6.309573444801942e-07
1366.2112335591667	7.498942093324558e-07
1372.2815515747586	8.912509381337459e-07
1379.4087417223905	1.0592537251772896e-06
1388.4415437919956	1.2589254117941687e-06
1397.6702755147835	1.4962356560944327e-06
1407.9940208356138	1.7782794100389227e-06
1419.0171105066893	2.1134890398366474e-06
1430.5245895415133	2.511886431509582e-06
1442.482374613352	2.9853826189179636e-06
1454.0242621049542	3.5481338923357534e-06
1465.8850820837781	4.216965034285822e-06
1478.26531796803	5.011872336272725e-06
1491.3563520328291	5.95662143529011e-06
1505.0649405070262	7.079457843841388e-06
1519.1176832413998	8.413951416451948e-06
1533.3949044585986	1e-05       
1547.7803666441991	1.188502227437019e-05
1562.180328484015	1.4125375446227555e-05
1575.5326941639173	1.678804018122562e-05
1588.2350224115467	1.9952623149688786e-05
1600.8335386011727	2.371373705661655e-05
1613.2703282737298	2.818382931264455e-05
1625.2589442515934	3.349654391578279e-05
1635.6542292984416	3.981071705534977e-05
1645.6107039942933	4.731512589614803e-05
1655.1942008246226	5.623413251903491e-05
1664.400469720234	6.683439175686148e-05
1673.0011689950836	7.943282347242821e-05
1680.9737786985527	9.440608762859246e-05
1688.9799519750204	0.00011220184543019629
1697.050714405444	0.0001333521432163324
1705.2276031620936	0.00015848931924611142
1713.4040803439314	0.00018836490894898024
1721.5960762554428	0.00022387211385683424
1730.1299121419777	0.0002660725059798809
1739.059428961789	0.0003162277660168379
1748.4021071322777	0.00037583740428844437
1757.7810882388037	0.0004466835921509635
1767.7763288174513	0.0005308844442309889
1778.357454861162	0.000630957344480193
1789.53186571173	0.0007498942093324559
1801.3850078435096	0.0008912509381337458
1813.5950601925338	0.0010592537251772895
1826.6197975973732	0.0012589254117941673
1840.4867321791726	0.0014962356560944345
1855.231784048969	0.0017782794100389225
1870.7273235396185	0.0021134890398366475
1886.8072118368643	0.002511886431509582
1903.955569141026	0.0029853826189179603
1922.1917236781196	0.0035481338923357567
1941.5311137170922	0.004216965034285822
1961.501306976037	0.0050118723362727255
1982.232109254199	0.005956621435290103
2003.938249808045	0.00707945784384138
2026.5791169935994	0.008413951416451957
2050.1      	0.01        
2072.951086346447	0.01188502227437019
2096.115747809667	0.014125375446227554
2119.5216277226723	0.016788040181225587
2142.9856283469558	0.01995262314968883
2165.7272473190765	0.023713737056616554
2186.944224265502	0.02818382931264455
2207.455840579354	0.033496543915782793
2227.051390305213	0.03981071705534969
2245.5754113873422	0.04731512589614813
2262.2691584055747	0.056234132519034905
2277.3776205050144	0.06683439175686148
2291.403424041745	0.07943282347242821
2304.2791118916034	0.09440608762859228
2315.9701714887374	0.11220184543019629
2325.464648232149	0.1333521432163324
2333.67483119225	0.1584893192461114
2340.617849460315	0.18836490894898023
2346.2968589338047	0.22387211385683378
2350.7641972303845	0.26607250597988086
2353.7720777909285	0.3162277660168379
2356.07553061855	0.3758374042884443
2357.721560637992	0.4466835921509634
2358.7817917746834	0.5308844442309879
2359.4121722486943	0.630957344480193
2359.7654720842793	0.7498942093324559
2359.9447693946845	0.8912509381337458
2360.0      	1.0592537251772898
2360.0      	1.2589254117941662
2360.0      	1.4962356560944328
2360.0      	1.7782794100389228
2360.0      	2.1134890398366473
2359.981714164151	2.511886431509582
2359.901460573065	2.9853826189179573
2359.8245049193006	3.548133892335753
2359.8      	4.216965034285823
2359.7674980372344	5.011872336272725
2359.6875355373822	5.956621435290109
2359.608295141578	7.079457843841373
2359.4621018224984	8.413951416451948
2359.4      	10.0        
