# T(K)	P(bar)
2050.2      	1e-08       
2050.2769396846684	1.1885022274370215e-08
2050.354750831576	1.4125375446227554e-08
2050.56816318174	1.6788040181225588e-08
2050.940758339304	1.9952623149688826e-08
2051.1793067900603	2.3713737056616554e-08
2051.4107031853887	2.818382931264461e-08
2051.7907256606904	3.3496543915782795e-08
2052.2107534816346	3.981071705534969e-08
2052.56292624929	4.731512589614813e-08
2053.189921442463	5.6234132519034905e-08
2054.065086105027	6.683439175686162e-08
2055.007387431553	7.94328234724282e-08
2056.0483958237373	9.440608762859226e-08
2057.3352729922462	1.1220184543019653e-07
2058.574850884474	1.333521432163324e-07
2060.048933680124	1.584893192461114e-07
2061.987139784126	1.883649089489802e-07
2064.3804601431098	2.2387211385683422e-07
2066.773677087706	2.6607250597988136e-07
2069.5991283753774	3.162277660168379e-07
2072.8959551133903	3.7583740428844433e-07
2076.635685181255	4.466835921509635e-07
2080.7725424227838	5.308844442309889e-07
2085.185205740859	6.309573444801942e-07
2089.7157132431194	7.498942093324558e-07
2094.968165811967	8.912509381337459e-07
2106.5941509002732	1.0592537251772896e-06
2131.5968572881916	1.2589254117941687e-06
2151.993129919227	1.4962356560944327e-06
2169.3797986653294	1.7782794100389227e-06
2186.117793971502	2.1134890398366474e-06
2205.472041696235	2.511886431509582e-06
2232.99902343879	2.9853826189179636e-06
2254.5631275152145	3.5481338923357534e-06
2273.1693990747135	4.216965034285822e-06
2292.9230750903257	5.011872336272725e-06
2316.838201589013	5.95662143529011e-06
2343.146012996143	7.079457843841388e-06
2362.861475832701	8.413951416451948e-06
2381.73949044586	1e-05       
2402.9843327369617	1.188502227437019e-05
2428.9741166457793	1.4125375446227555e-05
2451.3061434554406	1.678804018122562e-05
2469.676420016037	1.9952623149688786e-05
2489.482328254873	2.371373705661655e-05
2512.35278114796	2.818382931264455e-05
2537.8849222880417	3.349654391578279e-05
2556.5194332609103	3.981071705534977e-05
2574.867952245363	4.731512589614803e-05
2594.163230885276	5.623413251903491e-05
2614.675152690908	6.683439175686148e-05
2634.4249065813037	7.943282347242821e-05
2649.0441656236144	9.440608762859246e-05
2664.8085281051895	0.00011220184543019629
2679.5367858821423	0.0001333521432163324
2690.467056460962	0.00015848931924611142
2697.2283741305587	0.00018836490894898024
2704.610560346962	0.00022387211385683424
2710.2626615439895	0.0002660725059798809
2712.2600294186777	0.0003162277660168379
2708.737771261006	0.00037583740428844437
2700.2889370410776	0.0004466835921509635
2689.6447022339853	0.0005308844442309889
2674.1072932265565	0.000630957344480193
2652.1611581335087	0.0007498942093324559
2623.889812373251	0.0008912509381337458
2590.4079473941524	0.0010592537251772895
2550.5670802002155	0.0012589254117941673
2503.7465386239937	0.0014962356560944345
2449.8169432832556	0.0017782794100389225
2390.918081443797	0.0021134890398366475
2329.136061122922	0.002511886431509582
2266.226223361423	0.0029853826189179603
2203.301898046111	0.0035481338923357567
2140.745165681192	0.004216965034285822
2079.976491662762	0.0050118723362727255
2025.7472667959528	0.005956621435290103
1981.048547300976	0.00707945784384138
1948.9990093472004	0.008413951416451957
1931.6      	0.01        
1924.8293077492008	0.01188502227437019
1921.0479733895659	0.014125375446227554
1918.9946125457352	0.016788040181225587
1917.3516582676589	0.01995262314968883
1914.7276253093373	0.023713737056616554
1910.4966394776145	0.02818382931264455
1904.8267493038938	0.033496543915782793
1897.8588513295447	0.03981071705534969
1889.8347640722645	0.04731512589614813
1881.213580166135	0.056234132519034905
1872.7504678793373	0.06683439175686148
1864.6986182616117	0.07943282347242821
1857.4233450982638	0.09440608762859228
1851.27479857839	0.11220184543019629
1846.874919111931	0.1333521432163324
1843.4071389122223	0.1584893192461114
1840.8665261655035	0.18836490894898023
1839.303907971378	0.22387211385683378
1838.8252645824589	0.26607250597988086
1839.3106459088551	0.3162277660168379
1840.4694032700982	0.3758374042884443
1842.3936786466948	0.4466835921509634
1845.180526676265	0.5308844442309879
1848.8840119610782	0.630957344480193
1853.0502411588402	0.7498942093324559
1857.4966248917	0.8912509381337458
1862.151111636995	1.0592537251772898
1866.9548441374095	1.2589254117941662
1871.2977767128393	1.4962356560944328
1875.5297600373951	1.7782794100389228
1879.821965579496	2.1134890398366473
1884.315435986794	2.511886431509582
1889.21090504305	2.9853826189179573
1894.20718024548	3.548133892335753
1899.5448087964996	4.216965034285823
1905.1401413191245	5.011872336272725
1910.8725123832257	5.956621435290109
1916.419340089548	7.079457843841373
1922.1022325675606	8.413951416451948
1929.6      	10.0        
