# T(K)	P(bar)
1343.5      	1e-08       
1343.8077587386726	1.1885022274370215e-08
1344.2832558210325	1.4125375446227554e-08
1344.8354284544362	1.6788040181225588e-08
1345.4358611310124	1.9952623149688826e-08
1346.2310226335342	2.3713737056616554e-08
1347.1428127415547	2.818382931264461e-08
1348.2268141517268	3.3496543915782795e-08
1349.4983906673556	3.981071705534969e-08
1350.973047185547	4.731512589614813e-08
1352.697283966773	5.6234132519034905e-08
1354.7852009117298	6.683439175686162e-08
1357.1530331508086	7.94328234724282e-08
1359.892764298327	9.440608762859226e-08
1363.2080235387532	1.1220184543019653e-07
1367.0042308337006	1.333521432163324e-07
1371.4468010403716	1.584893192461114e-07
1376.6091354819023	1.883649089489802e-07
1382.561303738811	2.2387211385683422e-07
1389.3420850818336	2.6607250597988136e-07
1396.9949415550743	3.162277660168379e-07
1407.3021624865587	3.7583740428844433e-07
1419.6587276558998	4.466835921509635e-07
1433.2914347895535	5.308844442309889e-07
1447.868983251052	6.309573444801942e-07
1463.1072361928943	7.498942093324558e-07
1479.3806504624793	8.912509381337459e-07
1497.1737429056288	1.0592537251772896e-06
1517.0786541355196	1.2589254117941687e-06
1537.1647172968817	1.4962356560944327e-06
1557.7095587027247	1.7782794100389227e-06
1579.048409089834	2.1134890398366474e-06
1601.2114632169882	2.511886431509582e-06
1624.0837366765456	2.9853826189179636e-06
1646.9975340485087	3.5481338923357534e-06
1671.044645047206	4.216965034285822e-06
1695.9031221967007	5.011872336272725e-06
1721.288628037603	5.95662143529011e-06
1746.6455546950772	7.079457843841388e-06
1771.9842501990192	8.413951416451948e-06
1797.5480436760693	1e-05       
1823.1453144047516	1.188502227437019e-05
1848.7364118644496	1.4125375446227555e-05
1874.0356310474224	1.678804018122562e-05
1899.1700448230936	1.9952623149688786e-05
1924.1205285758858	2.371373705661655e-05
1949.09399360801	2.818382931264455e-05
1974.886175663131	3.349654391578279e-05
2000.142868221399	3.981071705534977e-05
2025.4717447532087	4.731512589614803e-05
2051.1077732378376	5.623413251903491e-05
2077.145866652931	6.683439175686148e-05
2103.1868727906703	7.943282347242821e-05
2127.121336095658	9.440608762859246e-05
2150.6418214177065	0.00011220184543019629
2173.9471431998986	0.0001333521432163324
2197.2241509122355	0.00015848931924611142
2219.4736032435826	0.00018836490894898024
2240.56547725443	0.00022387211385683424
2261.182769553948	0.0002660725059798809
2281.316897376192	0.0003162277660168379
2300.894548683025	0.00037583740428844437
2317.0946069579336	0.0004466835921509635
2330.885854294003	0.0005308844442309889
2342.508980525409	0.000630957344480193
2351.7343616588846	0.0007498942093324559
2357.981287917525	0.0008912509381337458
2358.645096611039	0.0010592537251772895
2354.78348295323	0.0012589254117941673
2346.163166569729	0.0014962356560944345
2332.407790058989	0.0017782794100389225
2312.3268358211067	0.0021134890398366475
2281.0120025983756	0.002511886431509582
2243.4972528549847	0.0029853826189179603
2200.8768057165753	0.0035481338923357567
2153.733396283184	0.004216965034285822
2103.963930270658	0.0050118723362727255
2051.067586247556	0.005956621435290103
1997.2999339701055	0.00707945784384138
1945.7890937212012	0.008413951416451957
1900.6      	0.01        
1869.9010658173997	0.01188502227437019
1853.0348835793511	0.014125375446227554
1846.4645715455638	0.016788040181225587
1846.3804111668348	0.01995262314968883
1848.6068633738955	0.023713737056616554
1851.8200789905713	0.02818382931264455
1855.571168115871	0.033496543915782793
1859.196781334711	0.03981071705534969
1861.8157315623225	0.04731512589614813
1861.9724803606157	0.056234132519034905
1861.3624282458109	0.06683439175686148
1860.0697897088191	0.07943282347242821
1858.0814336135415	0.09440608762859228
1855.4472836119537	0.11220184543019629
1853.594702783971	0.1333521432163324
1853.2146430543887	0.1584893192461114
1854.1334738344965	0.18836490894898023
1856.1765521717316	0.22387211385683378
1859.0484125052471	0.26607250597988086
1863.3581166863923	0.3162277660168379
1868.4204645071984	0.3758374042884443
1873.9680261382427	0.4466835921509634
1879.7770218594922	0.5308844442309879
1885.7656363625943	0.630957344480193
1891.7767056434461	0.7498942093324559
1897.7577046013362	0.8912509381337458
1903.6655191583438	1.0592537251772898
1909.532207536266	1.2589254117941662
1915.1935303578084	1.4962356560944328
1921.0455882007784	1.7782794100389228
1927.2636577730666	2.1134890398366473
1934.0554402415119	2.511886431509582
1941.7597849857839	2.9853826189179573
1950.6574293611645	3.548133892335753
1960.5616394448282	4.216965034285823
1971.4452865637802	5.011872336272725
1983.256920630949	5.956621435290109
1995.697662772272	7.079457843841373
2010.4450723064097	8.413951416451948
2031.7      	10.0        
