# T(K)	P(bar)
929.0       	1e-08       
939.4637971148715	1.1885022274370215e-08
949.1700997891277	1.4125375446227554e-08
958.2659573619366	1.6788040181225588e-08
966.8857835363268	1.9952623149688826e-08
974.9964308620484	2.3713737056616554e-08
982.5127363275683	2.818382931264461e-08
990.0031562942693	3.3496543915782795e-08
997.5857719296381	3.981071705534969e-08
1005.378712334962	4.731512589614813e-08
1013.1377778504785	5.6234132519034905e-08
1020.9394747173113	6.683439175686162e-08
1028.9127931682021	7.94328234724282e-08
1037.064572854293	9.440608762859226e-08
1045.4292744495988	1.1220184543019653e-07
1053.4865307490788	1.333521432163324e-07
1061.63190182065	1.584893192461114e-07
1069.9774652300491	1.883649089489802e-07
1078.5296565151948	2.2387211385683422e-07
1087.1452375157412	2.6607250597988136e-07
1095.4785368794803	3.162277660168379e-07
1103.9102922721365	3.7583740428844433e-07
1112.421927733222	4.466835921509635e-07
1120.983741014555	5.308844442309889e-07
1129.3362822951974	6.309573444801942e-07
1137.4686422123311	7.498942093324558e-07
1145.7903252312396	8.912509381337459e-07
1154.3361861405406	1.0592537251772896e-06
1163.1142390629873	1.2589254117941687e-06
1171.877656581265	1.4962356560944327e-06
1180.9576237854192	1.7782794100389227e-06
1190.4454866596	2.1134890398366474e-06
1200.3040153169843	2.511886431509582e-06
1210.4159677938412	2.9853826189179636e-06
1220.41436049096	3.5481338923357534e-06
1230.7686339818708	4.216965034285822e-06
1241.4527688988896	5.011872336272725e-06
1252.4574892290689	5.95662143529011e-06
1263.6303850375184	7.079457843841388e-06
1274.659719691367	8.413951416451948e-06
1286.0420382165605	1e-05       
1297.757081277698	1.188502227437019e-05
1309.74918087468	1.4125375446227555e-05
1321.6179503679266	1.678804018122562e-05
1333.722213077857	1.9952623149688786e-05
1346.215721476659	2.371373705661655e-05
1359.1206341841553	2.818382931264455e-05
1372.5001520205253	3.349654391578279e-05
1385.5905109684081	3.981071705534977e-05
1399.0588999600566	4.731512589614803e-05
1412.893790991096	5.623413251903491e-05
1427.1119070259524	6.683439175686148e-05
1441.6853141305587	7.943282347242821e-05
1456.0873457925181	9.440608762859246e-05
1471.0120659919505	0.00011220184543019629
1486.3410716574667	0.0001333521432163324
1501.9481751900996	0.00015848931924611142
1517.3576898789477	0.00018836490894898024
1532.8765219560755	0.00022387211385683424
1548.7765952879588	0.0002660725059798809
1565.0915573535683	0.0003162277660168379
1581.9078414807864	0.00037583740428844437
1598.4179487178942	0.0004466835921509635
1615.2157507892132	0.0005308844442309889
1632.5715209340601	0.000630957344480193
1650.5859777758992	0.0007498942093324559
1669.2466677536333	0.0008912509381337458
1687.8522299785732	0.0010592537251772895
1707.4014525574862	0.0012589254117941673
1728.130098268759	0.0014962356560944345
1750.2818360333868	0.0017782794100389225
1773.7623218942178	0.0021134890398366475
1798.181431314094	0.002511886431509582
1824.2864898460975	0.0029853826189179603
1852.0644964271403	0.0035481338923357567
1881.4354899997236	0.004216965034285822
1911.2347627533054	0.0050118723362727255
1941.9920137099245	0.005956621435290103
1974.1581149636977	0.00707945784384138
2007.624185182399	0.008413951416451957
2042.1      	0.01        
2075.1071247226455	0.01188502227437019
2108.4333559145552	0.014125375446227554
2142.0602378115696	0.016788040181225587
2175.9061675025223	0.01995262314968883
2209.3029506084345	0.023713737056616554
2241.1365707933824	0.02818382931264455
2272.8786192662765	0.033496543915782793
2304.4538412001866	0.03981071705534969
2335.7889968412683	0.04731512589614813
2365.5712685169883	0.056234132519034905
2394.1351262033263	0.06683439175686148
2422.1142355150428	0.07943282347242821
2449.4292133425506	0.09440608762859228
2476.096295625446	0.11220184543019629
2500.5658007283846	0.1333521432163324
2524.6403873215	0.1584893192461114
2548.498921855651	0.18836490894898023
2572.1764787262673	0.22387211385683378
2595.470456987004	0.26607250597988086
2617.5635328475123	0.3162277660168379
2639.6369641525034	0.3758374042884443
2661.6204324408372	0.4466835921509634
2683.409352536387	0.5308844442309879
2704.290705737993	0.630957344480193
2724.057477351734	0.7498942093324559
2743.4789629083293	0.8912509381337458
2762.4625946084802	1.0592537251772898
2780.896622608798	1.2589254117941662
2797.8805910734254	1.4962356560944328
2814.1209364389524	1.7782794100389228
2829.8847513167675	2.1134890398366473
2845.091450452835	2.511886431509582
2859.537096848345	2.9853826189179573
2872.1811932347496	3.548133892335753
2884.010601204128	4.216965034285823
2894.9602512339993	5.011872336272725
2904.9835553505436	5.956621435290109
2913.7792392848546	7.079457843841373
2921.7328070525837	8.413951416451948
2930.4      	10.0        
