# T(K)	P(bar)
831.2       	1e-08       
833.3543111707088	1.1885022274370215e-08
835.3687707894017	1.4125375446227554e-08
837.3744485450491	1.6788040181225588e-08
839.4532389406323	1.9952623149688826e-08
841.5206588471889	2.3713737056616554e-08
843.7367974587576	2.818382931264461e-08
846.1020825802352	3.3496543915782795e-08
848.6414045938938	3.981071705534969e-08
851.3988996841268	4.731512589614813e-08
854.3771268516988	5.6234132519034905e-08
857.450287016757	6.683439175686162e-08
860.7181382963989	7.94328234724282e-08
864.1798632542615	9.440608762859226e-08
867.8058189767379	1.1220184543019653e-07
871.5245526534211	1.333521432163324e-07
875.3148875163034	1.584893192461114e-07
879.3206136186225	1.883649089489802e-07
883.5648282575975	2.2387211385683422e-07
887.8726187578707	2.6607250597988136e-07
892.3310661019431	3.162277660168379e-07
897.0122947092623	3.7583740428844433e-07
901.957245819247	4.466835921509635e-07
907.174782141138	5.308844442309889e-07
912.3754210517267	6.309573444801942e-07
917.6793934538176	7.498942093324558e-07
923.1338576279138	8.912509381337459e-07
928.7413339643938	1.0592537251772896e-06
934.5413091126022	1.2589254117941687e-06
940.3577366689813	1.4962356560944327e-06
946.3652089429042	1.7782794100389227e-06
952.6250765807122	2.1134890398366474e-06
959.172581883021	2.511886431509582e-06
966.0743907164314	2.9853826189179636e-06
972.9945572629725	3.5481338923357534e-06
980.2822405095354	4.216965034285822e-06
987.8851923510305	5.011872336272725e-06
995.7589107243684	5.95662143529011e-06
1003.7621907006337	7.079457843841388e-06
1011.6328070525834	8.413951416451948e-06
1019.8058234758872	1e-05       
1028.2682199865194	1.188502227437019e-05
1036.959275632992	1.4125375446227555e-05
1045.548516713631	1.678804018122562e-05
1054.2069290746497	1.9952623149688786e-05
1063.0433324649844	2.371373705661655e-05
1072.0697164528785	2.818382931264455e-05
1081.3365743198879	3.349654391578279e-05
1090.2688192490314	3.981071705534977e-05
1099.2498476747498	4.731512589614803e-05
1108.3592076551815	5.623413251903491e-05
1117.6486613609966	6.683439175686148e-05
1127.0457216798138	7.943282347242821e-05
1136.2908101342362	9.440608762859246e-05
1145.6764140882594	0.00011220184543019629
1155.142500139685	0.0001333521432163324
1164.6792306020511	0.00015848931924611142
1174.192247323228	0.00018836490894898024
1183.7671080724047	0.00022387211385683424
1193.5826029719744	0.0002660725059798809
1203.680394526143	0.0003162277660168379
1214.1519551238823	0.00037583740428844437
1224.6936198386554	0.0004466835921509635
1235.5037101865892	0.0005308844442309889
1246.7190648903513	0.000630957344480193
1258.314758510975	0.0007498942093324559
1270.0878118445669	0.0008912509381337458
1281.330684201949	0.0010592537251772895
1292.611408503051	0.0012589254117941673
1303.9056551497986	0.0014962356560944345
1315.182744810238	0.0017782794100389225
1326.171928428607	0.0021134890398366475
1336.6332076094127	0.002511886431509582
1347.2133414846155	0.0029853826189179603
1357.9265945689424	0.0035481338923357567
1368.7490985862905	0.004216965034285822
1379.2022466202695	0.0050118723362727255
1389.7885146956492	0.005956621435290103
1400.6792729543483	0.00707945784384138
1411.9006604351996	0.008413951416451957
1423.5      	0.01        
1434.8870733308893	0.01188502227437019
1446.6221263995617	0.014125375446227554
1458.7130586339465	0.016788040181225587
1471.119433643794	0.01995262314968883
1483.5239530831327	0.023713737056616554
1495.5565656402127	0.02818382931264455
1507.6619586243944	0.033496543915782793
1519.8086323021132	0.03981071705534969
1531.9641356118623	0.04731512589614813
1543.5635466855638	0.056234132519034905
1554.9723047865816	0.06683439175686148
1566.5154960365267	0.07943282347242821
1578.2662108475379	0.09440608762859228
1590.3470495546387	0.11220184543019629
1602.5432066721917	0.1333521432163324
1615.4873380958613	0.1584893192461114
1629.3677906759726	0.18836490894898023
1644.3190829588348	0.22387211385683378
1660.3536364876297	0.26607250597988086
1677.1029725900619	0.3162277660168379
1694.8879453648872	0.3758374042884443
1713.7977570614228	0.4466835921509634
1733.9093525363874	0.5308844442309879
1754.790705737993	0.630957344480193
1776.6812540259687	0.7498942093324559
1800.1785123521895	0.8912509381337458
1825.5955215248205	1.0592537251772898
1853.361155021027	1.2589254117941662
1883.3739212119428	1.4962356560944328
1915.8988388149103	1.7782794100389228
1951.0788356371834	2.1134890398366473
1988.8063462528428	2.511886431509582
2028.772634613753	2.9853826189179573
2068.3799665603424	3.548133892335753
2107.962623334798	4.216965034285823
2148.0735068987615	5.011872336272725
2190.0291040190955	5.956621435290109
2236.6224567522036	7.079457843841373
2296.7971691781563	8.413951416451948
2374.2      	10.0        
