# T(K)	P(bar)
962.3       	1e-08       
969.5323303588082	1.1885022274370215e-08
976.2443190208134	1.4125375446227554e-08
982.5224477261031	1.6788040181225588e-08
988.4238556908846	1.9952623149688826e-08
993.8309539080323	2.3713737056616554e-08
998.8652356834219	2.818382931264461e-08
1003.901073714034	3.3496543915782795e-08
1008.972055706153	3.981071705534969e-08
1014.1034099943188	4.731512589614813e-08
1019.1193715397033	5.6234132519034905e-08
1024.271730753068	6.683439175686162e-08
1029.5751954454681	7.94328234724282e-08
1035.024231728851	9.440608762859226e-08
1040.6587284651068	1.1220184543019653e-07
1046.2368289801316	1.333521432163324e-07
1051.9510546164581	1.584893192461114e-07
1057.8178494603148	1.883649089489802e-07
1063.8331810339814	2.2387211385683422e-07
1069.9757711917784	2.6607250597988136e-07
1076.1359532440595	3.162277660168379e-07
1082.5347616535864	3.7583740428844433e-07
1089.3100326728033	4.466835921509635e-07
1096.591725268036	5.308844442309889e-07
1104.2350885154165	6.309573444801942e-07
1112.4677462755405	7.498942093324558e-07
1121.3380191780843	8.912509381337459e-07
1131.0408159892884	1.0592537251772896e-06
1141.8644150725322	1.2589254117941687e-06
1153.1870607156168	1.4962356560944327e-06
1165.0706075147455	1.7782794100389227e-06
1177.6658967384876	2.1134890398366474e-06
1190.98173543774	2.511886431509582e-06
1204.9458602867333	2.9853826189179636e-06
1218.9401046873443	3.5481338923357534e-06
1233.457486482028	4.216965034285822e-06
1248.472878813764	5.011872336272725e-06
1263.9679635982668	5.95662143529011e-06
1279.6575619675789	7.079457843841388e-06
1295.296665016416	8.413951416451948e-06
1311.4699727024567	1e-05       
1328.1833247881034	1.188502227437019e-05
1345.4116487602298	1.4125375446227555e-05
1362.5120469116837	1.678804018122562e-05
1379.9389818827751	1.9952623149688786e-05
1397.9743049941712	2.371373705661655e-05
1416.6867076660576	2.818382931264455e-05
1436.1919864770016	3.349654391578279e-05
1455.288510118619	3.981071705534977e-05
1474.9457505164044	4.731512589614803e-05
1495.0932445463934	5.623413251903491e-05
1515.608525167594	6.683439175686148e-05
1536.0750039975603	7.943282347242821e-05
1555.8986517041558	9.440608762859246e-05
1575.8998799375513	0.00011220184543019629
1595.9610717232008	0.0001333521432163324
1616.0030575099725	0.00015848931924611142
1635.4221908168372	0.00018836490894898024
1654.2438722058223	0.00022387211385683424
1673.1430532799516	0.0002660725059798809
1692.1105623705364	0.0003162277660168379
1711.080951868473	0.00037583740428844437
1729.2963283976765	0.0004466835921509635
1747.6877093872972	0.0005308844442309889
1766.54423243769	0.000630957344480193
1785.9083713857135	0.0007498942093324559
1805.6102157398875	0.0008912509381337458
1825.2166059691579	0.0010592537251772895
1845.5709155889272	0.0012589254117941673
1866.8238356123718	0.0014962356560944345
1889.045196193654	0.0017782794100389225
1911.5769755550575	0.0021134890398366475
1934.4607101304073	0.002511886431509582
1958.5517720456985	0.0029853826189179603
1983.8253556934303	0.0035481338923357567
2010.2062881934705	0.004216965034285822
2036.8072096829244	0.0050118723362727255
2063.830511996184	0.005956621435290103
2091.587294083915	0.00707945784384138
2119.982202057199	0.008413951416451957
2148.9      	0.01        
2176.6752261652096	0.01188502227437019
2204.491296041079	0.014125375446227554
2232.3041574491185	0.016788040181225587
2259.964934002018	0.01995262314968883
2286.6823604867477	0.023713737056616554
2311.685709626851	0.02818382931264455
2336.3208258023524	0.033496543915782793
2360.3573157889145	0.03981071705534969
2383.5158951323715	0.04731512589614813
2404.5986085028158	0.056234132519034905
2423.7929936267983	0.06683439175686148
2441.606126910069	0.07943282347242821
2457.8630024950126	0.09440608762859228
2472.4316739414585	0.11220184543019629
2484.087494984183	0.1333521432163324
2494.1932263177223	0.1584893192461114
2502.878847309203	0.18836490894898023
2510.1851350196707	0.22387211385683378
2516.088403483008	0.26607250597988086
2520.3392684397404	0.3162277660168379
2523.7898277649383	0.3758374042884443
2526.482898327699	0.4466835921509634
2528.473807521202	0.5308844442309879
2529.8133660284752	0.630957344480193
2530.5973121896286	0.7498942093324559
2531.1238469734226	0.8912509381337458
2531.4483703879	1.0592537251772898
2531.6      	1.2589254117941662
2531.6      	1.4962356560944328
2531.6      	1.7782794100389228
2531.6      	2.1134890398366473
2531.6      	2.511886431509582
2531.6      	2.9853826189179573
2531.5245049193004	3.548133892335753
2531.5      	4.216965034285823
2531.4674980372342	5.011872336272725
2531.4      	5.956621435290109
2531.4      	7.079457843841373
2531.3310509112493	8.413951416451948
2531.2      	10.0        
