# T(K)	P(bar)
952.7       	1e-08       
957.9318985574357	1.1885022274370215e-08
963.4420598734766	1.4125375446227554e-08
969.1888150897552	1.6788040181225588e-08
975.1189584825933	1.9952623149688826e-08
981.0826697515062	2.3713737056616554e-08
986.9378140298473	2.818382931264461e-08
992.979433588979	3.3496543915782795e-08
999.464264966369	3.981071705534969e-08
1006.647249210317	4.731512589614813e-08
1014.092817129247	5.6234132519034905e-08
1021.5206888402167	6.683439175686162e-08
1029.1013817383882	7.94328234724282e-08
1036.8339244203914	9.440608762859226e-08
1044.7226607635525	1.1220184543019653e-07
1052.54749620824	1.333521432163324e-07
1060.4595617686316	1.584893192461114e-07
1068.5687512516367	1.883649089489802e-07
1076.8976258389876	2.2387211385683422e-07
1085.3536590432277	2.6607250597988136e-07
1093.6785368794801	3.162277660168379e-07
1102.1102922721366	3.7583740428844433e-07
1110.6821506815065	4.466835921509635e-07
1119.434860873732	5.308844442309889e-07
1128.1813899506312	6.309573444801942e-07
1136.9659544019596	7.498942093324558e-07
1146.0827885727688	8.912509381337459e-07
1155.5505936618895	1.0592537251772896e-06
1165.3825008855076	1.2589254117941687e-06
1175.309203915061	1.4962356560944327e-06
1185.3753482381735	1.7782794100389227e-06
1195.5769738137267	2.1134890398366474e-06
1205.8405869886824	2.511886431509582e-06
1216.1130466477116	2.9853826189179636e-06
1226.3408457330593	3.5481338923357534e-06
1236.9291257874352	4.216965034285822e-06
1247.9152787127175	5.011872336272725e-06
1259.357204930009	5.95662143529011e-06
1271.1640239048954	7.079457843841388e-06
1283.087108756377	8.413951416451948e-06
1295.3142857142857	1e-05       
1307.7695420174402	1.188502227437019e-05
1320.4251084379791	1.4125375446227555e-05
1333.1528020392896	1.678804018122562e-05
1346.1103936119744	1.9952623149688786e-05
1359.549910167321	2.371373705661655e-05
1373.4885151744807	2.818382931264455e-05
1387.9095709391383	3.349654391578279e-05
1401.615946778686	3.981071705534977e-05
1415.483242487874	4.731512589614803e-05
1429.703750007743	5.623413251903491e-05
1444.356364518181	6.683439175686148e-05
1459.1686799359775	7.943282347242821e-05
1473.5873457925181	9.440608762859246e-05
1488.1136383860667	0.00011220184543019629
1502.549285923226	0.0001333521432163324
1516.796547750142	0.00015848931924611142
1530.8695228996512	0.00018836490894898024
1544.8753754927843	0.00022387211385683424
1559.1628281259632	0.0002660725059798809
1573.7184045600793	0.0003162277660168379
1588.5048222981368	0.00037583740428844437
1602.6120500782006	0.0004466835921509635
1616.6476273827575	0.0005308844442309889
1630.9766064815494	0.000630957344480193
1645.6990465411723	0.0007498942093324559
1660.6756518022723	0.0008912509381337458
1674.9238121737028	0.0010592537251772895
1689.3500734240588	0.0012589254117941673
1703.917977960377	0.0014962356560944345
1718.6520774757917	0.0017782794100389225
1733.594204841775	0.0021134890398366475
1748.5247576016748	0.002511886431509582
1764.235074106268	0.0029853826189179603
1780.7571691283156	0.0035481338923357567
1798.0522245024558	0.004216965034285822
1815.5261436040325	0.0050118723362727255
1833.8952082259548	0.005956621435290103
1853.441951066197	0.00707945784384138
1874.1317892851994	0.008413951416451957
1895.8      	0.01        
1917.343111707088	0.01188502227437019
1940.225249472819	0.014125375446227554
1964.4615457223292	0.016788040181225587
1989.9154867579043	0.01995262314968883
2015.75823558986	0.023713737056616554
2041.8094599489239	0.02818382931264455
2068.5682712129333	0.033496543915782793
2095.741734309346	0.03981071705534969
2123.0664998136576	0.04731512589614813
2149.635421124366	0.056234132519034905
2175.5311394145015	0.06683439175686148
2201.0457669361595	0.07943282347242821
2225.932421695076	0.09440608762859228
2250.021614075714	0.11220184543019629
2271.866629672343	0.1333521432163324
2292.775561652139	0.1584893192461114
2312.8420702442245	0.18836490894898023
2332.0034510733226	0.22387211385683378
2349.9525781577945	0.26607250597988086
2365.63578194125	0.3162277660168379
2379.926671880367	0.3758374042884443
2392.7059408023433	0.4466835921509634
2403.8757567610737	0.5308844442309879
2412.937476074978	0.630957344480193
2419.8412817909348	0.7498942093324559
2425.4757024704377	0.8912509381337458
2429.9641485337966	1.0592537251772898
2433.4365236450412	1.2589254117941662
2435.7630946675927	1.4962356560944328
2437.4363970501945	1.7782794100389228
2438.6629743082535	2.1134890398366473
2439.5097150150946	2.511886431509582
2439.9912365616115	2.9853826189179573
2440.1509901613995	3.548133892335753
2440.2534972685216	4.216965034285823
2440.3      	5.011872336272725
2440.3      	5.956621435290109
2440.3      	7.079457843841373
2440.231050911249	8.413951416451948
2440.2      	10.0        
