# T(K)	P(bar)
1903.0      	1e-08       
1902.6153015766592	1.1885022274370215e-08
1902.1167441789676	1.4125375446227554e-08
1901.4973062728677	1.6788040181225588e-08
1900.7641388689876	1.9952623149688826e-08
1899.9689773664659	2.3713737056616554e-08
1899.0571872584453	2.818382931264461e-08
1898.021640125055	3.3496543915782795e-08
1896.829297703053	3.981071705534969e-08
1895.4269528144528	4.731512589614813e-08
1893.702716033227	5.6234132519034905e-08
1891.6785562636892	6.683439175686162e-08
1889.262402277266	7.94328234724282e-08
1886.3201367457386	9.440608762859226e-08
1882.6765445271392	1.1220184543019653e-07
1878.338021904342	1.333521432163324e-07
1873.0063920675482	1.584893192461114e-07
1866.5298666692095	1.883649089489802e-07
1858.7262054418723	2.2387211385683422e-07
1849.392659357947	2.6607250597988136e-07
1838.395284160693	3.162277660168379e-07
1825.6223068948912	3.7583740428844433e-07
1811.0475936974055	4.466835921509635e-07
1794.6996063370295	5.308844442309889e-07
1776.9701555054774	6.309573444801942e-07
1756.1160581636598	7.498942093324558e-07
1727.9968542325173	8.912509381337459e-07
1701.438258040962	1.0592537251772896e-06
1667.6955311312206	1.2589254117941687e-06
1272.2560096648651	1.4962356560944327e-06
1207.9744773493562	1.7782794100389227e-06
1220.9687014168553	2.1134890398366474e-06
1212.7817141641508	2.511886431509582e-06
1212.7014605730649	2.9853826189179636e-06
1212.7754950806998	3.5481338923357534e-06
1213.7629508333855	4.216965034285822e-06
1215.607560845734	5.011872336272725e-06
1218.211042967318	5.95662143529011e-06
1221.4598991953067	7.079457843841388e-06
1225.3853526150426	8.413951416451948e-06
1229.455686988171	1e-05       
1233.8996859179374	1.188502227437019e-05
1239.021052851023	1.4125375446227555e-05
1243.7841774502863	1.678804018122562e-05
1248.7665213379664	1.9952623149688786e-05
1254.0764006420256	2.371373705661655e-05
1259.601223641702	2.818382931264455e-05
1265.0812381730368	3.349654391578279e-05
1270.394383863648	3.981071705534977e-05
1275.7699086048501	4.731512589614803e-05
1281.2495218608854	5.623413251903491e-05
1286.837341485337	6.683439175686148e-05
1292.4118687931098	7.943282347242821e-05
1297.9544860805418	9.440608762859246e-05
1303.9344726081042	0.00011220184543019629
1310.387857243806	0.0001333521432163324
1317.293814244484	0.00015848931924611142
1324.2909918327875	0.00018836490894898024
1331.7105603469618	0.00022387211385683424
1339.625323087979	0.0002660725059798809
1348.0906506265703	0.0003162277660168379
1357.205430331718	0.00037583740428844437
1366.6619236787938	0.0004466835921509635
1376.910720537068	0.0005308844442309889
1388.2554206421664	0.000630957344480193
1401.4069761547612	0.0007498942093324559
1417.8251797832397	0.0008912509381337458
1433.6816503123393	0.0010592537251772895
1449.1716990145485	0.0012589254117941673
1464.5616815536237	0.0014962356560944345
1480.3367438085684	0.0017782794100389225
1497.255343048359	0.0021134890398366475
1518.8518296231132	0.002511886431509582
1539.936311693163	0.0029853826189179603
1559.969398952065	0.0035481338923357567
1580.0882669631324	0.004216965034285822
1603.6468543232936	0.0050118723362727255
1629.9080519276345	0.005956621435290103
1655.514992700871	0.00707945784384138
1680.2570782255993	0.008413951416451957
1707.0      	0.01        
1736.5448389125777	0.01188502227437019
1766.4243193252084	0.014125375446227554
1798.329298902354	0.016788040181225587
1832.9507175383449	0.01995262314968883
1867.778791348796	0.023713737056616554
1902.7566497839537	0.02818382931264455
1938.7827844267467	0.033496543915782793
1974.855194609393	0.03981071705534969
2010.1631988660376	0.04731512589614813
2045.6668016794624	0.056234132519034905
2079.2518282547185	0.06683439175686148
2112.3894309605107	0.07943282347242821
2144.9356976815657	0.09440608762859228
2176.4851960159453	0.11220184543019629
2207.5931157524888	0.1333521432163324
2239.860398367278	0.1584893192461114
2272.2314351144837	0.18836490894898023
2304.4783959892247	0.22387211385683378
2337.7441115191123	0.26607250597988086
2369.9199062846596	0.3162277660168379
2400.0778531545416	0.3758374042884443
2427.5044455099583	0.4466835921509634
2451.5946491278432	0.5308844442309879
2470.821253585171	0.630957344480193
2485.0480356661487	0.7498942093324559
2496.0484803887157	0.8912509381337458
2504.3348155159933	1.0592537251772898
2510.6593949255775	1.2589254117941662
2515.0798798684255	1.4962356560944328
2518.492414842515	1.7782794100389228
2521.334598155343	2.1134890398366473
2523.8302892396237	2.511886431509582
2526.157643381122	2.9853826189179573
2528.3138622595916	3.548133892335753
2530.4444262500783	4.216965034285823
2532.545051031906	5.011872336272725
2534.636540490673	5.956621435290109
2536.7760311773973	7.079457843841373
2538.861625396272	8.413951416451948
2541.1      	10.0        
