# T(K)	P(bar)
1001.1      	1e-08       
1005.3316826567495	1.1885022274370215e-08
1009.8850498945638	1.4125375446227554e-08
1014.7524887262747	1.6788040181225588e-08
1019.896683464682	1.9952623149688826e-08
1025.1447493813253	2.3713737056616554e-08
1030.305704473681	2.818382931264461e-08
1035.5464365443793	3.3496543915782795e-08
1040.7997440765616	3.981071705534969e-08
1045.9955442131575	4.731512589614813e-08
1050.9331313593955	5.6234132519034905e-08
1055.6254305251355	6.683439175686162e-08
1060.167808013915	7.94328234724282e-08
1064.5758359051138	9.440608762859226e-08
1068.9124326627839	1.1220184543019653e-07
1072.86358719426	1.333521432163324e-07
1076.8297808843158	1.584893192461114e-07
1080.8843756258184	1.883649089489802e-07
1085.0327975813902	2.2387211385683422e-07
1089.181040285357	2.6607250597988136e-07
1093.3392684397402	3.162277660168379e-07
1097.6571885855524	3.7583740428844433e-07
1102.0561310778244	4.466835921509635e-07
1106.5134383101256	5.308844442309889e-07
1111.2412918652062	6.309573444801942e-07
1116.0148173063287	7.498942093324558e-07
1120.9652412598068	8.912509381337459e-07
1126.1445931885942	1.0592537251772896e-06
1131.604902807258	1.2589254117941687e-06
1136.8009114242898	1.4962356560944327e-06
1142.1867259744013	1.7782794100389227e-06
1147.7392646571675	2.1134890398366474e-06
1153.4348660169828	2.511886431509582e-06
1159.2933781662732	2.9853826189179636e-06
1165.062131052477	3.5481338923357534e-06
1170.9657924076282	4.216965034285822e-06
1177.0026511329525	5.011872336272725e-06
1183.1472991589308	5.95662143529011e-06
1189.1695692400808	7.079457843841388e-06
1195.109079833813	8.413951416451948e-06
1201.041856232939	1e-05       
1206.9652618426153	1.188502227437019e-05
1212.9038829200767	1.4125375446227555e-05
1218.604015637228	1.678804018122562e-05
1224.141892538394	1.9952623149688786e-05
1229.6353092042825	2.371373705661655e-05
1235.060011181652	2.818382931264455e-05
1240.3729966192504	3.349654391578279e-05
1245.1471275296547	3.981071705534977e-05
1249.7529666533521	4.731512589614803e-05
1254.2596174887083	5.623413251903491e-05
1258.7002348601172	6.683439175686148e-05
1263.000584497542	7.943282347242821e-05
1267.3090447293102	9.440608762859246e-05
1271.8384035933943	0.00011220184543019629
1276.651428646553	0.0001333521432163324
1281.8243482821786	0.00015848931924611142
1287.3277463853385	0.00018836490894898024
1293.2094138836708	0.00022387211385683424
1299.555068647983	0.0002660725059798809
1306.4550545035188	0.0003162277660168379
1314.0456127417924	0.00037583740428844437
1322.1068857589717	0.0004466835921509635
1330.838761938984	0.0005308844442309889
1340.4958448319726	0.000630957344480193
1351.26608011324	0.0007498942093324559
1363.279399841395	0.0008912509381337458
1375.865974035066	0.0010592537251772895
1389.4892606288138	0.0012589254117941673
1404.442893584462	0.0014962356560944345
1420.950610341679	0.0017782794100389225
1438.6597983309928	0.0021134890398366475
1457.3074270866423	0.002511886431509582
1477.7187324727072	0.0029853826189179603
1500.1669476896027	0.0035481338923357567
1524.8615658898113	0.004216965034285822
1550.8384188399232	0.0050118723362727255
1578.8326526131304	0.005956621435290103
1610.1566344604369	0.00707945784384138
1644.535369675199	0.008413951416451957
1680.3      	0.01        
1716.5385914787087	0.01188502227437019
1753.4066449986303	0.014125375446227554
1791.0100328107121	0.016788040181225587
1828.872992556256	0.01995262314968883
1864.4167117189768	0.023713737056616554
1896.2961020031232	0.02818382931264455
1927.0095337306407	0.033496543915782793
1955.5049017899476	0.03981071705534969
1980.639492475855	0.04731512589614813
2001.957329043739	0.056234132519034905
2021.639293854731	0.06683439175686148
2040.2135143416224	0.07943282347242821
2057.8815688814707	0.09440608762859228
2075.2008056864406	0.11220184543019629
2092.8003235522765	0.1333521432163324
2111.658417217028	0.1584893192461114
2131.187022215441	0.18836490894898023
2150.8757118210847	0.22387211385683378
2170.1809951741607	0.26607250597988086
2187.8324667455695	0.3162277660168379
2204.306287397885	0.3758374042884443
2219.318950604184	0.4466835921509634
2232.610908113288	0.5308844442309879
2243.4849712899736	0.630957344480193
2252.2341142966106	0.7498942093324559
2259.8397067322344	0.8912509381337458
2266.538074740193	1.0592537251772898
2272.618555171762	1.2589254117941662
2278.047220891049	1.4962356560944328
2282.8288118927094	1.7782794100389228
2287.090478425369	2.1134890398366473
2290.758290090567	2.511886431509582
2293.6474193696686	2.9853826189179573
2295.587377017492	3.548133892335753
2297.0024590278213	4.216965034285823
2297.9925176648903	5.011872336272725
2298.674786775705	5.956621435290109
2299.1502291505326	7.079457843841373
2299.544745443754	8.413951416451948
2299.9      	10.0        
