# T(K)	P(bar)
1190.8      	1e-08       
1195.5702604494268	1.1885022274370215e-08
1200.449302389292	1.4125375446227554e-08
1205.5197539989708	1.6788040181225588e-08
1210.8782001432896	1.9952623149688826e-08
1216.6033629614458	2.3713737056616554e-08
1222.5782828201066	2.818382931264461e-08
1228.8732506961062	3.3496543915782795e-08
1235.5088882255516	3.981071705534969e-08
1242.4921887421883	4.731512589614813e-08
1249.389135867092	5.6234132519034905e-08
1256.4019029631222	6.683439175686162e-08
1263.6322525945372	7.94328234724282e-08
1271.0250507254734	9.440608762859226e-08
1278.5094333914603	1.1220184543019653e-07
1285.8694271265624	1.333521432163324e-07
1293.3148816645944	1.584893192461114e-07
1300.9875612876158	1.883649089489802e-07
1308.933564486573	2.2387211385683422e-07
1317.0705020982002	2.6607250597988136e-07
1325.0137898017265	3.162277660168379e-07
1333.1572285979105	3.7583740428844433e-07
1341.4918162590795	4.466835921509635e-07
1349.983741014555	5.308844442309889e-07
1358.3362822951974	6.309573444801942e-07
1366.535010233401	7.498942093324558e-07
1374.9350946259242	8.912509381337459e-07
1384.0682604074389	1.0592537251772896e-06
1394.632559555356	1.2589254117941687e-06
1405.4123386265119	1.4962356560944327e-06
1416.5725038041169	1.7782794100389227e-06
1428.1100164684617	2.1134890398366474e-06
1439.9611612132114	2.511886431509582e-06
1452.0794534672225	2.9853826189179636e-06
1463.7752522663534	3.5481338923357534e-06
1475.7385793522994	4.216965034285822e-06
1488.0678120797331	5.011872336272725e-06
1500.906494182359	5.95662143529011e-06
1514.2981210733376	7.079457843841388e-06
1527.5592432651408	8.413951416451948e-06
1541.1171064604187	1e-05       
1554.974136274328	1.188502227437019e-05
1569.1010360012785	1.4125375446227555e-05
1582.6876537106527	1.678804018122562e-05
1596.0606410789262	1.9952623149688786e-05
1609.6910016050642	2.371373705661655e-05
1623.40002795413	2.818382931264455e-05
1636.6813141832995	3.349654391578279e-05
1648.539639347852	3.981071705534977e-05
1659.9763310014262	4.731512589614803e-05
1670.9890847051233	5.623413251903491e-05
1681.5079380173015	6.683439175686148e-05
1691.2235427537057	7.943282347242821e-05
1700.2044497964282	9.440608762859246e-05
1709.1775933838464	0.00011220184543019629
1718.053214413661	0.0001333521432163324
1726.7632802067894	0.00015848931924611142
1735.2542372802363	0.00018836490894898024
1743.6912482249363	0.00022387211385683424
1752.4169375859772	0.0002660725059798809
1761.4594289617892	0.0003162277660168379
1770.805430331718	0.00037583740428844437
1780.2619236787937	0.0004466835921509635
1789.9833391679301	0.0005308844442309889
1800.0958448319727	0.000630957344480193
1810.5923649011609	0.0007498942093324559
1821.3242638583129	0.0008912509381337458
1831.7146737483777	0.0010592537251772895
1842.4505957078063	0.0012589254117941673
1853.5369009310027	0.0014962356560944345
1864.9624513834158	0.0017782794100389225
1876.5050471264506	0.0021134890398366475
1888.3186220137004	0.002511886431509582
1900.8940840367525	0.0029853826189179603
1914.3180283946053	0.0035481338923357567
1928.6901061516912	0.004216965034285822
1943.9017767981532	0.0050118723362727255
1959.9583071977104	0.005956621435290103
1977.0666886766314	0.00707945784384138
1995.2288693303994	0.008413951416451957
2014.4      	0.01        
2033.5579814823745	0.01188502227437019
2053.20671122032	0.014125375446227554
2073.3099549050985	0.016788040181225587
2093.7372866146147	0.01995262314968883
2113.854872628414	0.023713737056616554
2132.9478955970035	0.02818382931264455
2151.638300766937	0.033496543915782793
2169.736064749083	0.03981071705534969
2187.073156232246	0.04731512589614813
2202.7480360615727	0.056234132519034905
2216.9762915754063	0.06683439175686148
2230.2651657540428	0.07943282347242821
2242.5702381966858	0.09440608762859228
2253.863581940232	0.11220184543019629
2263.1264860801457	0.1333521432163324
2271.217509665056	0.1584893192461114
2278.2265634387277	0.18836490894898023
2284.160920286219	0.22387211385683378
2288.9473541754114	0.26607250597988086
2292.336824868682	0.3162277660168379
2294.979615517518	0.3758374042884443
2296.9420065345607	0.4466835921509634
2298.3124636901894	0.5308844442309879
2299.1792368419547	0.630957344480193
2299.698208126419	0.7498942093324559
2299.989538789369	0.8912509381337458
2300.12418519395	1.0592537251772898
2300.2      	1.2589254117941662
2300.2      	1.4962356560944328
2300.2      	1.7782794100389228
2300.2      	2.1134890398366473
2300.181714164151	2.511886431509582
2300.1014605730647	2.9853826189179573
2300.1      	3.548133892335753
2300.0465027314785	4.216965034285823
2299.9674980372342	5.011872336272725
2299.8875355373825	5.956621435290109
2299.808295141578	7.079457843841373
2299.731050911249	8.413951416451948
2299.6      	10.0        
