# T(K)	P(bar)
2768.3      	1e-08       
2752.6812440123613	1.1885022274370215e-08
2738.0900994847325	1.4125375446227554e-08
2724.5524108206614	1.6788040181225588e-08
2712.1794608444334	1.9952623149688826e-08
2701.5242967106424	2.3713737056616554e-08
2693.225388511395	2.818382931264461e-08
2686.126749303894	3.3496543915782795e-08
2680.211009405073	3.981071705534969e-08
2675.446039847745	4.731512589614813e-08
2671.919191886146	5.6234132519034905e-08
2669.1322560357567	6.683439175686162e-08
2666.6738137070797	7.94328234724282e-08
2664.412082047443	9.440608762859226e-08
2662.240476825585	1.1220184543019653e-07
2660.1486891324507	1.333521432163324e-07
2657.9340461638203	1.584893192461114e-07
2655.649098208678	1.883649089489802e-07
2653.3195398568905	2.2387211385683422e-07
2650.9263229122944	2.6607250597988136e-07
2648.538568117927	3.162277660168379e-07
2646.16936325774	3.7583740428844433e-07
2643.796655775732	4.466835921509635e-07
2641.383056873102	5.308844442309889e-07
2638.94033253631	6.309573444801942e-07
2636.409855304696	7.498942093324558e-07
2633.733071186043	8.912509381337459e-07
2630.227962393256	1.0592537251772896e-06
2625.008749557246	1.2589254117941687e-06
2620.0453980424695	1.4962356560944327e-06
2615.2515673651646	1.7782794100389227e-06
2610.870940382277	2.1134890398366474e-06
2607.123424073584	2.511886431509582e-06
2604.1540412033955	2.9853826189179636e-06
2601.7596524983096	3.5481338923357534e-06
2599.9300546295717	4.216965034285822e-06
2599.682541218078	5.011872336272725e-06
2601.4365404906725	5.95662143529011e-06
2603.5760311773975	7.079457843841388e-06
2605.247930863767	8.413951416451948e-06
2608.827934485896	1e-05       
2614.437068137164	1.188502227437019e-05
2621.390077908568	1.4125375446227555e-05
2626.9340426060708	1.678804018122562e-05
2632.1290832047043	1.9952623149688786e-05
2640.5993499105107	2.371373705661655e-05
2651.5491102228534	2.818382931264455e-05
2660.6988986454357	3.349654391578279e-05
2667.167076007919	3.981071705534977e-05
2676.1789608901568	4.731512589614803e-05
2686.769030060653	5.623413251903491e-05
2698.2525129395885	6.683439175686148e-05
2710.3572008078954	7.943282347242821e-05
2722.726003596767	9.440608762859246e-05
2739.1034178243126	0.00011220184543019629
2756.670000230069	0.0001333521432163324
2771.9646469596187	0.00015848931924611142
2783.9935028136683	0.00018836490894898024
2799.8873244803794	0.00022387211385683424
2820.105714823941	0.0002660725059798809
2841.82715347662	0.0003162277660168379
2860.03805429254	0.00037583740428844437
2874.920404478102	0.0004466835921509635
2893.4838741956687	0.0005308844442309889
2913.9038082478837	0.000630957344480193
2934.0240833555163	0.0007498942093324559
2950.5223757821823	0.0008912509381337458
2967.4943918399367	0.0010592537251772895
2984.5192753136257	0.0012589254117941673
3001.2116478032576	0.0014962356560944345
3017.138210942681	0.0017782794100389225
3031.2897495591415	0.0021134890398366475
3047.2748652265636	0.002511886431509582
3061.786133540228	0.0029853826189179603
3073.998154931013	0.0035481338923357567
3084.0876054187593	0.004216965034285822
3093.682659211143	0.0050118723362727255
3103.170064181527	0.005956621435290103
3110.8490442758703	0.00707945784384138
3115.8056748008003	0.008413951416451957
3117.9      	0.01        
3118.1308190540044	0.01188502227437019
3114.9697009370125	0.014125375446227554
3108.4322468199753	0.016788040181225587
3098.5990496775985	0.01995262314968883
3085.7174333367466	0.023713737056616554
3069.3591362568836	0.02818382931264455
3050.3018880367367	0.033496543915782793
3028.814995840677	0.03981071705534969
3005.0728290921484	0.04731512589614813
2978.8957797771736	0.056234132519034905
2951.9849886033767	0.06683439175686148
2924.0783770534044	0.07943282347242821
2895.003824447254	0.09440608762859228
2864.358734307426	0.11220184543019629
2834.794631927535	0.1333521432163324
2806.034964101222	0.1584893192461114
2777.7804645257265	0.18836490894898023
2749.7465856494096	0.22387211385683378
2721.5863996013272	0.26607250597988086
2696.1725916993564	0.3162277660168379
2671.8405689031724	0.3758374042884443
2648.20744955046	0.4466835921509634
2624.9679598015878	0.5308844442309879
2603.1410358889657	0.630957344480193
2583.2425226482655	0.7498942093324559
2564.0001146704085	0.8912509381337458
2544.995553452021	1.0592537251772898
2525.7487679331857	1.2589254117941662
2507.8341710595378	1.4962356560944328
2490.18285613979	1.7782794100389228
2472.072000989054	2.1134890398366473
2453.3296852320696	2.511886431509582
2434.149076962476	2.9853826189179573
2416.6626166811693	3.548133892335753
2399.651584536415	4.216965034285823
2383.1021015585798	5.011872336272725
2367.455543831669	5.956621435290109
2355.0940420861502	7.079457843841373
2349.2493601424458	8.413951416451948
2348.6      	10.0        
