# T(K)	P(bar)
3283.8      	1e-08       
3213.09242978995	1.1885022274370215e-08
3177.6100329586475	1.4125375446227554e-08
3161.730451001887	1.6788040181225588e-08
3152.2734581243694	1.9952623149688826e-08
3143.9242623478913	2.3713737056616554e-08
3136.66820125295	2.818382931264461e-08
3130.2174749645847	3.3496543915782795e-08
3124.6663861458906	3.981071705534969e-08
3120.053905628906	4.731512589614813e-08
3116.605432066454	5.6234132519034905e-08
3113.896013211175	6.683439175686162e-08
3111.600660564968	7.94328234724282e-08
3109.5991810033775	9.440608762859226e-08
3107.747090511631	1.1220184543019653e-07
3105.8877236732897	1.333521432163324e-07
3103.9638328998453	1.584893192461114e-07
3101.8853362014825	1.883649089489802e-07
3099.5714938425795	2.2387211385683422e-07
3096.9389552035236	2.6607250597988136e-07
3094.173821040173	3.162277660168379e-07
3091.261193459804	3.7583740428844433e-07
3088.255763982594	4.466835921509635e-07
3085.24216098576	5.308844442309889e-07
3082.484246411963	6.309573444801942e-07
3080.0425913468357	7.498942093324558e-07
3077.8359957382036	8.912509381337459e-07
3075.843740539152	1.0592537251772896e-06
3073.9998826603032	1.2589254117941687e-06
3072.293730577099	1.4962356560944327e-06
3070.584171836617	1.7782794100389227e-06
3068.9283761529105	2.1134890398366474e-06
3067.3708549547164	2.511886431509582e-06
3065.9262903151657	2.9853826189179636e-06
3065.145049193003	3.5481338923357534e-06
3064.793005462957	4.216965034285822e-06
3064.8625098138277	5.011872336272725e-06
3065.324644626175	5.95662143529011e-06
3066.117048584221	7.079457843841388e-06
3066.7515927100067	8.413951416451948e-06
3067.094449499545	1e-05       
3066.9875392602576	1.188502227437019e-05
3066.2412423676474	1.4125375446227555e-05
3064.4453101416952	1.678804018122562e-05
3061.4724015970064	1.9952623149688786e-05
3057.35233085992	2.371373705661655e-05
3051.9484704478723	2.818382931264455e-05
3045.071667233898	3.349654391578279e-05
3036.678437084962	3.981071705534977e-05
3026.7284396861633	4.731512589614803e-05
3015.06112021164	5.623413251903491e-05
3001.450986348828	6.683439175686148e-05
2985.6034015738733	7.943282347242821e-05
2967.175199562624	9.440608762859246e-05
2945.807195835971	0.00011220184543019629
2921.132856734367	0.0001333521432163324
2892.7341836574956	0.00015848931924611142
2860.4213747946555	0.00018836490894898024
2824.658000789495	0.00022387211385683424
2784.833668286108	0.0002660725059798809
2741.2945596380127	0.0003162277660168379
2695.0556243106275	0.00037583740428844437
2652.036330805487	0.0004466835921509635
2612.8628081366505	0.0005308844442309889
2578.535685562461	0.000630957344480193
2550.0955197923936	0.0007498942093324559
2528.0711002907765	0.0008912509381337458
2512.0925324561676	0.0010592537251772895
2498.6104782293123	0.0012589254117941673
2487.3505062554905	0.0014962356560944345
2477.9841079755156	0.0017782794100389225
2470.236338230191	0.0021134890398366475
2463.549461875555	0.002511886431509582
2457.6703168818235	0.0029853826189179603
2452.756273082384	0.0035481338923357567
2448.904339921491	0.004216965034285822
2446.1740400618696	0.0050118723362727255
2444.4978593830533	0.005956621435290103
2443.839851949674	0.00707945784384138
2444.288980616	0.008413951416451957
2445.9      	0.01        
2448.285130224713	0.01188502227437019
2451.8470432419554	0.014125375446227554
2456.6551824534067	0.016788040181225587
2462.6955779529094	0.01995262314968883
2469.692999175101	0.023713737056616554
2477.8853146739934	0.02818382931264455
2487.495964535195	0.033496543915782793
2498.4255671908873	0.03981071705534969
2510.458524985797	0.04731512589614813
2522.998428849258	0.056234132519034905
2536.2937485228927	0.06683439175686148
2549.830270899633	0.07943282347242821
2562.9879855865215	0.09440608762859228
2575.081154069581	0.11220184543019629
2584.9615851521553	0.1333521432163324
2592.9309020290834	0.1584893192461114
2599.0018035826433	0.18836490894898023
2603.1964754812134	0.22387211385683378
2605.6694663239628	0.26607250597988086
2606.74834240216	0.3162277660168379
2607.35510612371	0.3758374042884443
2607.6301114741423	0.4466835921509634
2607.6897760281645	0.5308844442309879
2607.6109784689133	0.630957344480193
2607.6      	0.7498942093324559
2607.5552306053155	0.8912509381337458
2607.47581480605	1.0592537251772898
2607.395449211832	1.2589254117941662
2607.3178968444136	1.4962356560944328
2607.240189628937	1.7782794100389228
2607.122837615291	2.1134890398366473
2606.9451424924528	2.511886431509582
2606.704381719194	2.9853826189179573
2606.473514757901	3.548133892335753
2606.132513657393	4.216965034285823
2605.737490186172	5.011872336272725
2605.30028429906	5.956621435290109
2604.666361132623	7.079457843841373
2603.9105091124916	8.413951416451948
2603.2      	10.0        
