# T(K)	P(bar)
3352.8      	1e-08       
3326.1788691048123	1.1885022274370215e-08
3312.6154151792416	1.4125375446227554e-08
3304.2667773653675	1.6788040181225588e-08
3295.0387025051295	1.9952623149688826e-08
3284.144989920582	2.3713737056616554e-08
3271.6815591987506	2.818382931264461e-08
3257.739050241807	3.3496543915782795e-08
3242.5900142886803	3.981071705534969e-08
3226.6897700170434	4.731512589614813e-08
3211.64188538089	5.6234132519034905e-08
3198.2250373542015	6.683439175686162e-08
3186.307326823101	7.94328234724282e-08
3176.1572018846905	9.440608762859226e-08
3167.9258396007854	1.1220184543019653e-07
3161.805423757911	1.333521432163324e-07
3156.293625487579	1.584893192461114e-07
3150.972054482119	1.883649089489802e-07
3145.626972347055	2.2387211385683422e-07
3140.28212117079	2.6607250597988136e-07
3135.0394397425493	3.162277660168379e-07
3129.8836203917695	3.7583740428844433e-07
3124.893311551464	4.466835921509635e-07
3120.1683534645576	5.308844442309889e-07
3116.070880383488	6.309573444801942e-07
3112.6461750939975	7.498942093324558e-07
3109.633071186043	8.912509381337459e-07
3106.9744441815023	1.0592537251772896e-06
3104.5634763549588	1.2589254117941687e-06
3102.2369053324073	1.4962356560944327e-06
3099.8458784970508	1.7782794100389227e-06
3097.288239459948	2.1134890398366474e-06
3094.4502807301874	2.511886431509582e-06
3091.159883495655	2.9853826189179636e-06
3087.4762361264147	3.5481338923357534e-06
3083.411147499843	4.216965034285822e-06
3079.0798900851255	5.011872336272725e-06
3074.6518479438896	5.95662143529011e-06
3070.53134736205	7.079457843841388e-06
3066.8593928287114	8.413951416451948e-06
3063.5582347588715	1e-05       
3060.570484263628	1.188502227437019e-05
3057.7722173101024	1.4125375446227555e-05
3055.1954449859104	1.678804018122562e-05
3052.698020264386	1.9952623149688786e-05
3050.5138054941626	2.371373705661655e-05
3048.7703003195993	2.818382931264455e-05
3047.4917584462137	3.349654391578279e-05
3046.952743666007	3.981071705534977e-05
3046.912171263909	4.731512589614803e-05
3047.139972677765	5.623413251903491e-05
3047.3110850155426	6.683439175686148e-05
3046.833268389162	7.943282347242821e-05
3045.1534280576047	9.440608762859246e-05
3042.408255069109	0.00011220184543019629
3038.1303570548207	0.0001333521432163324
3031.8278005320367	0.00015848931924611142
3023.2582234856873	0.00018836490894898024
3012.6618601106334	0.00022387211385683424
2999.6066337080374	0.0002660725059798809
2983.5748070707655	0.0003162277660168379
2963.999716968466	0.00037583740428844437
2940.668532562976	0.0004466835921509635
2912.398394916784	0.0005308844442309889
2878.075179372805	0.000630957344480193
2837.585753175728	0.0007498942093324559
2792.5758485942406	0.0008912509381337458
2747.380532118177	0.0010592537251772895
2704.5538437040477	0.0012589254117941673
2666.014280331808	0.0014962356560944345
2633.1740844874817	0.0017782794100389225
2606.610302503511	0.0021134890398366475
2583.3745966489914	0.002511886431509582
2561.695490292934	0.0029853826189179603
2541.560569413833	0.0035481338923357567
2522.9372201048623	0.004216965034285822
2506.71143808197	0.0050118723362727255
2492.4010538990838	0.005956621435290103
2480.000430944999	0.00707945784384138
2469.7356478892	0.008413951416451957
2461.6      	0.01        
2455.906463334555	0.01188502227437019
2452.0099667369573	0.014125375446227554
2449.7627757274754	0.016788040181225587
2448.9271722262024	0.01995262314968883
2449.0862045267068	0.023713737056616554
2450.293984717203	0.02818382931264455
2452.15671974989	0.033496543915782793
2454.596781334711	0.03981071705534969
2457.506765465288	0.04731512589614813
2460.5633670320067	0.056234132519034905
2464.0328300692704	0.06683439175686148
2467.983243441989	0.07943282347242821
2472.3847096000313	0.09440608762859228
2477.138380518622	0.11220184543019629
2482.0014051920766	0.1333521432163324
2487.025899267639	0.1584893192461114
2491.9018035826434	0.18836490894898023
2496.384751567079	0.22387211385683378
2500.2936725765862	0.26607250597988086
2503.3450272064792	0.3162277660168379
2505.828594292776	0.3758374042884443
2507.7118950604186	0.4466835921509634
2508.992015746519	0.5308844442309879
2509.701193779781	0.630957344480193
2510.065472084279	0.7498942093324559
2510.289538789369	0.8912509381337458
2510.4      	1.0592537251772898
2510.4045507881683	1.2589254117941662
2510.4821031555866	1.4962356560944328
2510.5598103710627	1.7782794100389228
2510.6      	2.1134890398366473
2510.618285835849	2.511886431509582
2510.698539426935	2.9853826189179573
2510.7754950807	3.548133892335753
2510.906994537043	4.216965034285823
2511.065003925531	5.011872336272725
2511.224928925235	5.956621435290109
2511.383409716844	7.079457843841373
2511.6068472662523	8.413951416451948
2511.9      	10.0        
