# T(K)	P(bar)
3358.9      	1e-08       
3358.823060315332	1.1885022274370215e-08
3358.690498336848	1.4125375446227554e-08
3358.499102090956	1.6788040181225588e-08
3358.2592416606963	1.9952623149688826e-08
3358.02069320994	2.3713737056616554e-08
3357.719062419482	2.818382931264461e-08
3357.357728616091	3.3496543915782795e-08
3356.9061814071397	3.981071705534969e-08
3356.3370737507103	4.731512589614813e-08
3355.710078557537	5.6234132519034905e-08
3354.9624282458108	6.683439175686162e-08
3354.050330282484	7.94328234724282e-08
3352.9733789152465	9.440608762859226e-08
3351.755908759693	1.1220184543019653e-07
3350.2064363944082	1.333521432163324e-07
3348.478726267858	1.584893192461114e-07
3346.4853362014824	1.883649089489802e-07
3344.139463166372	2.2387211385683422e-07
3341.3473767310097	2.6607250597988136e-07
3338.2090739624196	3.162277660168379e-07
3334.599959987642	3.7583740428844433e-07
3330.483645973891	4.466835921509635e-07
3325.8354418306976	5.308844442309889e-07
3320.71360047936	6.309573444801942e-07
3315.221502482973	7.498942093324558e-07
3309.442295398664	8.912509381337459e-07
3303.655406811406	1.0592537251772896e-06
3298.158690887398	1.2589254117941687e-06
3292.342263331019	1.4962356560944327e-06
3286.753463654536	1.7782794100389227e-06
3281.5465472663773	2.1134890398366474e-06
3276.61142066981	2.511886431509582e-06
3271.394937249209	2.9853826189179636e-06
3264.5809378177273	3.5481338923357534e-06
3255.7663387033435	4.216965034285822e-06
3244.702180069204	5.011872336272725e-06
3231.1447851634102	5.95662143529011e-06
3214.900504023466	7.079457843841388e-06
3199.134385894833	8.413951416451948e-06
3186.23575978162	1e-05       
3177.625235561547	1.188502227437019e-05
3174.127610023018	1.4125375446227555e-05
3174.439946062314	1.678804018122562e-05
3175.1256186673795	1.9952623149688786e-05
3176.6505602568104	2.371373705661655e-05
3178.6915183704755	2.818382931264455e-05
3180.217660472399	3.349654391578279e-05
3181.3726921442712	3.981071705534977e-05
3184.448195965763	4.731512589614803e-05
3189.1894945386503	5.623413251903491e-05
3195.0225223212606	6.683439175686148e-05
3200.517413524637	7.943282347242821e-05
3206.4124365028015	9.440608762859246e-05
3214.227789933111	0.00011220184543019629
3222.5035715342156	0.0001333521432163324
3229.488671237483	0.00015848931924611142
3234.6775894490333	0.00018836490894898024
3240.704585853164	0.00022387211385683424
3246.8504795939843	0.0002660725059798809
3252.2316750282803	0.0003162277660168379
3255.766463988806	0.00037583740428844437
3257.316708799802	0.0004466835921509635
3258.9891544578927	0.0005308844442309889
3258.3677126861767	0.000630957344480193
3253.9695295192223	0.0007498942093324559
3245.4000281131384	0.0008912509381337458
3233.8984019555182	0.0010592537251772895
3218.0547739777867	0.0012589254117941673
3197.288824701867	0.0014962356560944345
3171.179498635506	0.0017782794100389225
3139.793125279446	0.0021134890398366475
3103.8646398928067	0.002511886431509582
3061.8516687437595	0.0029853826189179603
3014.2284926150533	0.0035481338923357567
2962.3097847648883	0.004216965034285822
2909.419976055652	0.0050118723362727255
2855.561436076182	0.005956621435290103
2800.1254118321704	0.00707945784384138
2742.8688191464016	0.008413951416451957
2683.1      	0.01        
2620.0094585720994	0.01188502227437019
2549.8532216448043	0.014125375446227554
2472.6902213797766	0.016788040181225587
2389.9655451664153	0.01995262314968883
2307.8253619559214	0.023713737056616554
2258.699831712518	0.02818382931264455
2230.9668732597347	0.033496543915782793
2219.403218665289	0.03981071705534969
2217.0438392159986	0.04731512589614813
2219.473445589544	0.056234132519034905
2225.3193599106085	0.06683439175686148
2233.304745171681	0.07943282347242821
2242.85249080685	0.09440608762859228
2253.4184948444467	0.11220184543019629
2264.6111706801757	0.1333521432163324
2276.599479769528	0.1584893192461114
2289.0618408558676	0.18836490894898023
2301.7304234203775	0.22387211385683378
2314.3346993285845	0.26607250597988086
2326.161260579264	0.3162277660168379
2337.3919502391386	0.3758374042884443
2347.8434883712134	0.4466835921509634
2357.37351704272	0.5308844442309879
2365.647260764111	0.630957344480193
2372.5740178330743	0.7498942093324559
2378.589088233229	0.8912509381337458
2383.754370861195	1.0592537251772898
2388.2002346793934	1.2589254117941662
2391.612538845802	1.4962356560944328
2394.4933629872007	1.7782794100389228
2396.941692193571	2.1134890398366473
2398.9840025528306	2.511886431509582
2400.66932796564	2.9853826189179573
2401.832426210495	3.548133892335753
2402.734972685214	4.216965034285823
2403.4275137393593	5.011872336272725
2403.937393387853	5.956621435290109
2404.175114575266	7.079457843841373
2404.3378981775018	8.413951416451948
2404.5      	10.0        
