# T(K)	P(bar)
3342.3      	1e-08       
3316.371326266826	1.1885022274370215e-08
3301.2633885688074	1.4125375446227554e-08
3288.809799093872	1.6788040181225588e-08
3273.25181345703	1.9952623149688826e-08
3255.9968088523087	2.3713737056616554e-08
3238.2758547250696	2.818382931264461e-08
3220.6916048312264	3.3496543915782795e-08
3204.0668979927673	3.981071705534969e-08
3189.243730169299	4.731512589614813e-08
3177.722693494744	5.6234132519034905e-08
3168.877982230175	6.683439175686162e-08
3161.575134837016	7.94328234724282e-08
3155.3539935321655	9.440608762859226e-08
3149.6478852209393	1.1220184543019653e-07
3144.302205560707	1.333521432163324e-07
3138.8212854355606	1.584893192461114e-07
3133.2633405037063	1.883649089489802e-07
3127.742987685159	2.2387211385683422e-07
3122.4779104070467	2.6607250597988136e-07
3117.8959844825063	3.162277660168379e-07
3113.7489387629	3.7583740428844433e-07
3110.035318086025	4.466835921509635e-07
3106.74216098576	5.308844442309889e-07
3103.984246411963	6.309573444801942e-07
3101.4762233257657	7.498942093324558e-07
3099.0569181594656	8.912509381337459e-07
3096.6502589875527	1.0592537251772896e-06
3094.136171625951	1.2589254117941687e-06
3091.344286398889	1.4962356560944327e-06
3088.1281540442965	1.7782794100389227e-06
3084.432359189922	2.1134890398366474e-06
3080.2028498490554	2.511886431509582e-06
3075.387634383885	2.9853826189179636e-06
3070.619304996619	3.5481338923357534e-06
3065.783169351672	4.216965034285822e-06
3061.0798900851255	5.011872336272725e-06
3056.664312406507	5.95662143529011e-06
3052.623052220472	7.079457843841388e-06
3048.8904437399606	8.413951416451948e-06
3045.133212010919	1e-05       
3041.3517931540146	1.188502227437019e-05
3037.5962897468034	1.4125375446227555e-05
3034.1605933145474	1.678804018122562e-05
3031.122649063958	1.9952623149688786e-05
3028.54943974319	2.371373705661655e-05
3026.446662939449	2.818382931264455e-05
3024.6729206089876	3.349654391578279e-05
3022.9018720454505	3.981071705534977e-05
3020.8856879372324	4.731512589614803e-05
3018.26528005291	5.623413251903491e-05
3014.621935170968	6.683439175686148e-05
3009.365952280782	7.943282347242821e-05
3002.270532061515	9.440608762859246e-05
2993.573782461005	0.00011220184543019629
2982.8135712384124	0.0001333521432163324
2969.480470720509	0.00015848931924611142
2953.441996248442	0.00018836490894898024
2935.156127794178	0.00022387211385683424
2913.8637470100593	0.0002660725059798809
2888.786116991581	0.0003162277660168379
2859.057731442905	0.00037583740428844437
2825.417419044291	0.0004466835921509635
2788.3284164170336	0.0005308844442309889
2748.005519197669	0.000630957344480193
2706.0661500278184	0.0007498942093324559
2666.582372521282	0.0008912509381337458
2635.526892597399	0.0010592537251772895
2608.9774441357713	0.0012589254117941673
2586.569766729777	0.0014962356560944345
2567.7112826844755	0.0017782794100389225
2551.8204488190645	0.0021134890398366475
2537.4517762953187	0.002511886431509582
2523.9519407149855	0.0029853826189179603
2511.5972588850814	0.0035481338923357567
2500.6906586126443	0.004216965034285822
2492.187724764109	0.0050118723362727255
2485.256677120916	0.005956621435290103
2479.7284388685866	0.00707945784384138
2475.6581819836	0.008413951416451957
2473.0      	0.01        
2471.7689650453094	0.01188502227437019
2471.454750831576	0.014125375446227554
2471.9708569088725	0.016788040181225587
2473.158136148924	0.01995262314968883
2474.668943003715	0.023713737056616554
2476.41539108798	0.02818382931264455
2478.214448365981	0.033496543915782793
2479.953767408173	0.03981071705534969
2481.5101209362574	0.04731512589614813
2482.6073625243102	0.056234132519034905
2483.692600455865	0.06683439175686148
2484.7496697175156	0.07943282347242821
2485.652423172885	0.09440608762859228
2486.2087860646743	0.11220184543019629
2486.517549536005	0.1333521432163324
2486.8292861087775	0.1584893192461114
2487.0724759856084	0.18836490894898023
2487.2      	0.22387211385683378
2487.2      	0.26607250597988086
2487.2      	0.3162277660168379
2487.2      	0.3758374042884443
2487.2      	0.4466835921509634
2487.2      	0.5308844442309879
2487.2      	0.630957344480193
2487.26636802107	0.7498942093324559
2487.3      	0.8912509381337458
2487.3      	1.0592537251772898
2487.3045507881684	1.2589254117941662
2487.3821031555867	1.4962356560944328
2487.4598103710628	1.7782794100389228
2487.5385811923543	2.1134890398366473
2487.636571671698	2.511886431509582
2487.7970788538705	2.9853826189179573
2487.9509901613997	3.548133892335753
2488.1604918055646	4.216965034285823
2488.4300078510623	5.011872336272725
2488.774786775705	5.956621435290109
2489.250229150533	7.079457843841373
2489.8515927100066	8.413951416451948
2490.5      	10.0        
