# T(K)	P(bar)
3380.8      	1e-08       
3379.184266621968	1.1885022274370215e-08
3377.2217275474463	1.4125375446227554e-08
3374.9237556368626	1.6788040181225588e-08
3372.2565554759503	1.9952623149688826e-08
3369.0759094658633	2.3713737056616554e-08
3365.5692178240397	2.818382931264461e-08
3361.5834690537836	3.3496543915782795e-08
3357.111009405073	3.981071705534969e-08
3352.1729926621974	4.731512589614813e-08
3346.921907919373	5.6234132519034905e-08
3341.4732405452564	6.683439175686162e-08
3335.8979576966435	7.94328234724282e-08
3330.3628672270834	9.440608762859226e-08
3325.0677262790773	1.1220184543019653e-07
3320.4193091832235	1.333521432163324e-07
3316.212772431678	1.584893192461114e-07
3312.2968143382027	1.883649089489802e-07
3308.5472791091283	2.2387211385683422e-07
3304.797905895927	2.6607250597988136e-07
3300.733680975811	3.162277660168379e-07
3295.98362039177	3.7583740428844433e-07
3290.330859120335	4.466835921509635e-07
3283.5571548727867	5.308844442309889e-07
3275.5198038291496	6.309573444801942e-07
3266.1039973662723	7.498942093324558e-07
3255.2293601920123	8.912509381337459e-07
3242.525739119266	1.0592537251772896e-06
3227.4669710858575	1.2589254117941687e-06
3209.8625836818837	1.4962356560944327e-06
3191.624942058099	1.7782794100389227e-06
3174.1908555673335	2.1134890398366474e-06
3158.8936962943358	2.511886431509582e-06
3147.0161648135836	2.9853826189179636e-06
3137.740590316037	3.5481338923357534e-06
3128.2733332403864	4.216965034285822e-06
3118.4072468032355	5.011872336272725e-06
3108.2167289485164	5.95662143529011e-06
3098.7871218477685	7.079457843841388e-06
3091.2498365686724	8.413951416451948e-06
3084.6164695177436	1e-05       
3078.428507787514	1.188502227437019e-05
3072.0994819993607	1.4125375446227555e-05
3065.3061731446737	1.678804018122562e-05
3057.5561277259917	1.9952623149688786e-05
3048.72793603307	2.371373705661655e-05
3038.900583866721	2.818382931264455e-05
3028.348119937366	3.349654391578279e-05
3018.414847559267	3.981071705534977e-05
3008.4210391098436	4.731512589614803e-05
2998.0409289559943	5.623413251903491e-05
2987.0512212089448	6.683439175686148e-05
2975.503986071415	7.943282347242821e-05
2963.675126994397	9.440608762859246e-05
2951.480858234527	0.00011220184543019629
2939.1739283918337	0.0001333521432163324
2926.9442723015554	0.00015848931924611142
2914.994036420408	0.00018836490894898024
2902.5607136473423	0.00022387211385683424
2889.067710040036	0.0002660725059798809
2874.635743216442	0.0003162277660168379
2859.7051473001843	0.00037583740428844437
2845.8304562417698	0.0004466835921509635
2832.78993949571	0.0005308844442309889
2820.05771505127	0.000630957344480193
2807.3628478792107	0.0007498942093324559
2794.5486401691787	0.0008912509381337458
2781.637294890908	0.0010592537251772895
2767.2326261035496	0.0012589254117941673
2751.15717391627	0.0014962356560944345
2733.378589858655	0.0017782794100389225
2714.4835187450567	0.0021134890398366475
2694.813078847266	0.002511886431509582
2674.027292279031	0.0029853826189179603
2652.343753406178	0.0035481338923357567
2630.045899947845	0.004216965034285822
2608.3595182057097	0.0050118723362727255
2587.0842006429766	0.005956621435290103
2565.9392333364117	0.00707945784384138
2545.0988442384005	0.008413951416451957
2524.8      	0.01        
2506.5652947336434	0.01188502227437019
2489.876079526907	0.014125375446227554
2474.7815539117887	0.016788040181225587
2461.4251163920285	0.01995262314968883
2450.451887657229	0.023713737056616554
2442.476560487043	0.02818382931264455
2436.7381062234385	0.033496543915782793
2433.356986073462	0.03981071705534969
2432.333718279741	0.04731512589614813
2433.6660830652336	0.056234132519034905
2436.9603444201084	0.06683439175686148
2441.3215017296916	0.07943282347242821
2446.315358033933	0.09440608762859228
2451.5405770347907	0.11220184543019629
2456.480792576078	0.1333521432163324
2461.41125621325	0.1584893192461114
2466.4192315394685	0.18836490894898023
2471.621073667256	0.22387211385683378
2477.2052465379807	0.26607250597988086
2483.5548014907117	0.3162277660168379
2490.3919102267805	0.3758374042884443
2497.449809724519	0.4466835921509634
2504.489485549682	0.5308844442309879
2511.344873204549	0.630957344480193
2517.2112335591664	0.7498942093324559
2522.1623167076464	0.8912509381337458
2526.0464817882466	1.0592537251772898
2528.7910157633605	1.2589254117941662
2530.3420631117283	1.4962356560944328
2531.2382933395656	1.7782794100389228
2531.754324769418	2.1134890398366473
2532.0365716716983	2.511886431509582
2532.19707885387	2.9853826189179573
2532.2      	3.548133892335753
2532.2534972685216	4.216965034285823
2532.332501962766	5.011872336272725
2532.4249289252352	5.956621435290109
2532.583409716844	7.079457843841373
2532.737898177502	8.413951416451948
2532.9      	10.0        
