# T(K)	P(bar)
2760.3      	1e-08       
2739.603224824262	1.1885022274370215e-08
2721.847574537451	1.4125375446227554e-08
2706.7169823662252	1.6788040181225588e-08
2693.9745636361417	1.9952623149688826e-08
2683.876012554116	2.3713737056616554e-08
2676.4682012529497	2.818382931264461e-08
2670.5020177324022	3.3496543915782795e-08
2665.798646590794	3.981071705534969e-08
2662.1168318781956	4.731512589614813e-08
2659.2953535089173	5.6234132519034905e-08
2656.8872847374323	6.683439175686162e-08
2654.57381370708	7.94328234724282e-08
2652.224983091509	9.440608762859226e-08
2649.731658577524	1.1220184543019653e-07
2647.329976411332	1.333521432163324e-07
2644.8617061118016	1.584893192461114e-07
2642.3403842302655	1.883649089489802e-07
2639.787509180683	2.2387211385683422e-07
2637.23474443978	2.6607250597988136e-07
2634.838568117927	3.162277660168379e-07
2632.367320808256	3.7583740428844433e-07
2629.776209879163	4.466835921509635e-07
2627.0421609857603	5.308844442309889e-07
2624.284246411963	6.309573444801942e-07
2621.378015199347	7.498942093324558e-07
2618.3539936073053	8.912509381337459e-07
2614.2409992900566	1.0592537251772896e-06
2607.740487734726	1.2589254117941687e-06
2601.613850708673	1.4962356560944327e-06
2596.0132740255985	1.7782794100389227e-06
2590.576478919896	2.1134890398366474e-06
2585.284564013206	2.511886431509582e-06
2580.38909495695	2.9853826189179636e-06
2576.600741045715	3.5481338923357534e-06
2573.260109259143	4.216965034285822e-06
2570.6199528936254	5.011872336272725e-06
2568.8130330607373	5.95662143529011e-06
2567.6244271236683	7.079457843841388e-06
2566.5347127574883	8.413951416451948e-06
2566.383348498635	1e-05       
2567.2311518493552	1.188502227437019e-05
2568.8104400920715	1.4125375446227555e-05
2570.0597842492557	1.678804018122562e-05
2571.426113601283	1.9952623149688786e-05
2574.2778462003907	2.371373705661655e-05
2578.3478865811517	2.818382931264455e-05
2582.045917228238	3.349654391578279e-05
2585.0489995751054	3.981071705534977e-05
2589.5455660770326	4.731512589614803e-05
2595.3394262330626	5.623413251903491e-05
2602.5931188532254	6.683439175686148e-05
2612.229087485233	7.943282347242821e-05
2622.278301063208	9.440608762859246e-05
2635.5124590904793	0.00011220184543019629
2650.5096430766475	0.0001333521432163324
2665.396547750142	0.00015848931924611142
2679.469522899651	0.00018836490894898024
2696.012611096202	0.00022387211385683424
2717.3629947079367	0.0002660725059798809
2741.3588285049	0.0003162277660168379
2763.167659070712	0.00037583740428844437
2781.072986637716	0.0004466835921509635
2801.9074203731784	0.0005308844442309889
2824.001774028888	0.000630957344480193
2845.432012969105	0.0007498942093324559
2863.3719037631495	0.0008912509381337458
2879.800929691885	0.0010592537251772895
2896.6192753136256	0.0012589254117941673
2913.5616140528914	0.0014962356560944345
2930.0040509827477	0.0017782794100389225
2943.918412974351	0.0021134890398366475
2958.5217974325765	0.002511886431509582
2971.7417870158974	0.0029853826189179603
2982.893568747107	0.0035481338923357567
2991.953438507782	0.004216965034285822
2999.6762866821396	0.0050118723362727255
3006.0147126391607	0.005956621435290103
3009.518075345761	0.00707945784384138
3009.4247936140005	0.008413951416451957
3005.8      	0.01        
2998.567669641192	0.01188502227437019
2987.749368610982	0.014125375446227554
2973.1671873670825	0.016788040181225587
2954.5736133137407	0.01995262314968883
2931.5934458908628	0.023713737056616554
2905.7203056559465	0.02818382931264455
2878.059551804995	0.033496543915782793
2848.490782058996	0.03981071705534969
2816.428935352801	0.04731512589614813
2780.8469581402296	0.056234132519034905
2745.335456482714	0.06683439175686148
2709.334713029053	0.07943282347242821
2672.2957021149937	0.09440608762859228
2633.1215105612173	0.11220184543019629
2595.2207944554043	0.1333521432163324
2559.1333481809165	0.1584893192461114
2524.3626150654113	0.18836490894898023
2489.9610671771475	0.22387211385683378
2453.9032652118976	0.26607250597988086
2421.8718913775433	0.3162277660168379
2392.6384864413303	0.3758374042884443
2367.200013455732	0.4466835921509634
2347.070883661395	0.5308844442309879
2336.8272009587204	0.630957344480193
2336.860096463536	0.7498942093324559
2342.5694028099774	0.8912509381337458
2352.2794087045872	1.0592537251772898
2364.3373450229174	1.2589254117941662
2378.6069806279006	1.4962356560944328
2392.72567716238	1.7782794100389228
2405.980084814943	2.1134890398366473
2418.169732033966	2.511886431509582
2429.886756332546	2.9853826189179573
2440.820301459357	3.548133892335753
2451.308142176307	4.216965034285823
2461.397741420171	5.011872336272725
2471.2331289019535	5.956621435290109
2480.9796975859203	7.079457843841373
2490.6186360938523	8.413951416451948
2504.2      	10.0        
