# T(K)	P(bar)
3372.1      	1e-08       
3371.8691809459956	1.1885022274370215e-08
3371.52624584212	1.4125375446227554e-08
3371.064571545564	1.6788040181225588e-08
3370.49131109519	1.9952623149688826e-08
3369.855181893173	2.3713737056616554e-08
3369.0274216535745	2.818382931264461e-08
3368.0700944018367	3.3496543915782795e-08
3366.956986073462	3.981071705534969e-08
3365.650550157937	4.731512589614813e-08
3364.1614365741507	5.6234132519034905e-08
3362.3698277899457	6.683439175686162e-08
3360.2738137070796	7.94328234724282e-08
3357.8378841355743	9.440608762859226e-08
3355.007408395354	1.1220184543019653e-07
3351.7535164282567	1.333521432163324e-07
3348.0276657996906	1.584893192461114e-07
3343.8344344101606	1.883649089489802e-07
3339.175018361366	2.2387211385683422e-07
3334.069488879561	2.6607250597988136e-07
3328.6205914958973	3.162277660168379e-07
3322.9244293690917	3.7583740428844433e-07
3317.0416394393305	4.466835921509635e-07
3311.074097999685	5.308844442309889e-07
3305.479471292839	6.309573444801942e-07
3300.3860786304613	7.498942093324558e-07
3295.6033751083	8.912509381337459e-07
3291.069814332755	1.0592537251772896e-06
3286.590546404574	1.2589254117941687e-06
3281.3169854201237	1.4962356560944327e-06
3274.4778251200896	1.7782794100389227e-06
3265.6072826092095	2.1134890398366474e-06
3254.0074053528256	2.511886431509582e-06
3238.6789694553677	2.9853826189179636e-06
3219.0732593408784	3.5481338923357534e-06
3196.5368303694872	4.216965034285822e-06
3172.194383691596	5.011872336272725e-06
3148.2204248362955	5.95662143529011e-06
3130.5498165718677	7.079457843841388e-06
3120.0813639061475	8.413951416451948e-06
3111.4303002729753	1e-05       
3103.072434458674	1.188502227437019e-05
3093.844089286445	1.4125375446227555e-05
3084.1616720682705	1.678804018122562e-05
3075.2305090586124	1.9952623149688786e-05
3067.137404852137	2.371373705661655e-05
3059.8690766778973	2.818382931264455e-05
3053.101101354564	3.349654391578279e-05
3046.632923992081	3.981071705534977e-05
3039.6401218602	4.731512589614803e-05
3031.8907240392305	5.623413251903491e-05
3023.2513386390033	6.683439175686148e-05
3013.854278320186	7.943282347242821e-05
3004.036469190148	9.440608762859246e-05
2993.477320347766	0.00011220184543019629
2982.623571271279	0.0001333521432163324
2972.0207693979487	0.00015848931924611142
2962.5077526767723	0.00018836490894898024
2953.648522482405	0.00022387211385683424
2945.39224052202	0.0002660725059798809
2938.1034677312728	0.0003162277660168379
2932.217224030783	0.00037583740428844437
2927.954050800544	0.0004466835921509635
2924.380289014119	0.0005308844442309889
2921.5535598832425	0.000630957344480193
2919.3894271818817	0.0007498942093324559
2917.467296025377	0.0008912509381337458
2915.91634462987	0.0010592537251772895
2914.3567488190206	0.0012589254117941673
2912.493872345077	0.0014962356560944345
2909.998987254313	0.0017782794100389225
2906.520396756412	0.0021134890398366475
2901.4319161107446	0.002511886431509582
2893.95317830188	0.0029853826189179603
2883.7134686992613	0.0035481338923357567
2870.475726937331	0.004216965034285822
2853.3918506728432	0.0050118723362727255
2833.206660711526	0.005956621435290103
2810.465451450107	0.00707945784384138
2785.270635343201	0.008413951416451957
2757.4      	0.01        
2727.7782214027543	0.01188502227437019
2696.616411548542	0.014125375446227554
2663.8724969157342	0.016788040181225587
2629.309629634124	0.01995262314968883
2592.4936520673687	0.023713737056616554
2555.7279591280662	0.02818382931264455
2520.810023814179	0.033496543915782793
2488.8598750232986	0.03981071705534969
2460.477339402341	0.04731512589614813
2436.338024465178	0.056234132519034905
2416.3519776715257	0.06683439175686148
2398.68984909167	0.07943282347242821
2382.9458711999055	0.09440608762859228
2368.7946842525644	0.11220184543019629
2358.065153623831	0.1333521432163324
2350.3849917156667	0.1584893192461114
2345.4229562734404	0.18836490894898023
2342.903907971378	0.22387211385683378
2342.425264582459	0.26607250597988086
2343.786038895464	0.3162277660168379
2345.57553061855	0.3758374042884443
2347.4022294828455	0.4466835921509634
2348.973807521202	0.5308844442309879
2350.3133660284752	0.630957344480193
2351.561888337117	0.7498942093324559
2352.5924633415293	0.8912509381337458
2353.393481551599	1.0592537251772898
2354.018203152672	1.2589254117941662
2354.3284126223457	1.4962356560944328
2354.4598103710628	1.7782794100389228
2354.5385811923543	2.1134890398366473
2354.618285835849	2.511886431509582
2354.698539426935	2.9853826189179573
2354.7754950807	3.548133892335753
2354.8534972685216	4.216965034285823
2354.965003925531	5.011872336272725
2355.124928925235	5.956621435290109
2355.2834097168443	7.079457843841373
2355.5068472662524	8.413951416451948
2355.8      	10.0        
