# T(K)	P(bar)
3310.8      	1e-08       
3310.5691809459954	1.1885022274370215e-08
3310.445249168424	1.4125375446227554e-08
3310.332734727304	1.6788040181225588e-08
3310.1728277737975	1.9952623149688826e-08
3310.013795473293	2.3713737056616554e-08
3309.859531209741	2.818382931264461e-08
3309.606182892873	3.3496543915782795e-08
3309.2892465183654	3.981071705534969e-08
3308.960671094194	4.731512589614813e-08
3308.5687990984607	5.6234132519034905e-08
3308.1174569474865	6.683439175686162e-08
3307.561741712298	7.94328234724282e-08
3306.882252610164	9.440608762859226e-08
3306.0735452558156	1.1220184543019653e-07
3305.1438618366446	1.333521432163324e-07
3304.095746423913	1.584893192461114e-07
3302.8839541223288	1.883649089489802e-07
3301.4636778998233	2.2387211385683422e-07
3299.788426038606	2.6607250597988136e-07
3297.8033151956806	3.162277660168379e-07
3295.56936325774	3.7583740428844433e-07
3292.955763982594	4.466835921509635e-07
3289.8501452392416	5.308844442309889e-07
3286.383052632182	6.309573444801942e-07
3282.31612686223	7.498942093324558e-07
3277.634758740193	8.912509381337459e-07
3272.697258750905	1.0592537251772896e-06
3267.8858782767097	1.2589254117941687e-06
3260.828612841636	1.4962356560944327e-06
3251.8433243592663	1.7782794100389227e-06
3241.1514023391837	2.1134890398366474e-06
3228.8914079056563	2.511886431509582e-06
3215.248297421008	2.9853826189179636e-06
3201.6373707161542	3.5481338923357534e-06
3187.7774862031865	4.216965034285822e-06
3172.8045956702827	5.011872336272725e-06
3155.260376915687	5.95662143529011e-06
3132.122181340742	7.079457843841388e-06
3099.2245027721383	8.413951416451948e-06
3052.2537761601457	1e-05       
2976.59149092173	1.188502227437019e-05
2856.577991226986	1.4125375446227555e-05
2703.611415981789	1.678804018122562e-05
2655.7442493123067	1.9952623149688786e-05
2639.8512103462995	2.371373705661655e-05
2630.5508897771465	2.818382931264455e-05
2621.3846182469915	3.349654391578279e-05
2613.838411324094	3.981071705534977e-05
2608.278776450785	4.731512589614803e-05
2604.6901775945284	5.623413251903491e-05
2602.8962658514665	6.683439175686148e-05
2602.3388131206893	7.943282347242821e-05
2603.1590810134235	9.440608762859246e-05
2606.089779438246	0.00011220184543019629
2610.5803572191553	0.0001333521432163324
2615.824348282178	0.00015848931924611142
2621.3277463853383	0.00018836490894898024
2627.469643176329	0.00022387211385683424
2634.0856068139824	0.0002660725059798809
2640.8111628274255	0.0003162277660168379
2647.145916758583	0.00037583740428844437
2652.8818225592686	0.0004466835921509635
2658.9292364624325	0.0005308844442309889
2664.928218875832	0.000630957344480193
2670.6803968520903	0.0007498942093324559
2676.206523927042	0.0008912509381337458
2680.554235036364	0.0010592537251772895
2683.51271421242	0.0012589254117941673
2684.8375084375916	0.0014962356560944345
2684.16482729438	0.0017782794100389225
2680.449060171622	0.0021134890398366475
2669.851991545097	0.002511886431509582
2654.0461090863814	0.0029853826189179603
2632.8746443065697	0.0035481338923357567
2605.7557937961537	0.004216965034285822
2568.8577414075567	0.0050118723362727255
2529.627762382747	0.005956621435290103
2494.675814972933	0.00707945784384138
2466.9043539304007	0.008413951416451957
2445.8      	0.01        
2429.642666219684	0.01188502227437019
2417.5181394003835	0.014125375446227554
2409.179348091985	0.016788040181225587
2404.1244860414563	0.01995262314968883
2401.3414207826304	0.023713737056616554
2402.0130471366842	0.02818382931264455
2405.888707928288	0.033496543915782793
2412.45190215209	0.03981071705534969
2420.7966990523805	0.04731512589614813
2429.7313805550966	0.056234132519034905
2440.927333488258	0.06683439175686148
2453.8839646154097	0.07943282347242821
2468.1936509289144	0.09440608762859228
2483.376644008586	0.11220184543019629
2500.127062328263	0.1333521432163324
2518.758417217028	0.1584893192461114
2538.35949820105	0.18836490894898023
2558.175711821085	0.22387211385683378
2577.480995174161	0.26607250597988086
2595.9349103166273	0.3162277660168379
2613.4716057690152	0.3758374042884443
2629.550176819749	0.4466835921509634
2643.723371803478	0.5308844442309879
2655.464208131928	0.630957344480193
2664.59958638089	0.7498942093324559
2671.757704601336	0.8912509381337458
2676.9641485337966	1.0592537251772898
2680.4046681278646	1.2589254117941662
2682.1883725784874	1.4962356560944328
2683.198103710629	1.7782794100389228
2683.715743577063	2.1134890398366473
2683.918285835849	2.511886431509582
2683.998539426935	2.9853826189179573
2684.0754950806995	3.548133892335753
2684.0465027314785	4.216965034285823
2684.0      	5.011872336272725
2683.9875355373824	5.956621435290109
2683.908295141578	7.079457843841373
2683.9      	8.413951416451948
2683.9      	10.0        
