# T(K)	P(bar)
3355.9      	1e-08       
3355.6691809459953	1.1885022274370215e-08
3355.380996673696	1.4125375446227554e-08
3354.9982041819117	1.6788040181225588e-08
3354.49131109519	1.9952623149688826e-08
3353.855181893173	2.3713737056616554e-08
3353.167890443834	2.818382931264461e-08
3352.3670029554005	3.3496543915782795e-08
3351.4123628142793	3.981071705534969e-08
3350.266281720259	4.731512589614813e-08
3348.9339169347663	5.6234132519034905e-08
3347.3610993162024	6.683439175686162e-08
3345.5006605649683	7.94328234724282e-08
3343.3032083525254	9.440608762859226e-08
3340.714022081401	1.1220184543019653e-07
3337.6925509690955	1.333521432163324e-07
3334.2000058517087	1.584893192461114e-07
3330.1706724029646	1.883649089489802e-07
3325.526972347055	2.2387211385683422e-07
3320.18212117079	2.6607250597988136e-07
3314.282895002593	3.162277660168379e-07
3307.812174672187	3.7583740428844433e-07
3300.709298482343	4.466835921509635e-07
3292.967378844622	5.308844442309889e-07
3285.0088253602366	6.309573444801942e-07
3277.0640938298084	7.498942093324558e-07
3269.2125993209206	8.912509381337459e-07
3261.4540361868585	1.0592537251772896e-06
3253.5994133015165	1.2589254117941687e-06
3245.068652885494	1.4962356560944327e-06
3234.7863584222605	1.7782794100389227e-06
3221.7924110679414	2.1134890398366474e-06
3204.697107603766	2.511886431509582e-06
3181.4235661887783	2.9853826189179636e-06
3145.7437973132432	3.5481338923357534e-06
3098.3498355536026	4.216965034285822e-06
3043.0485475534433	5.011872336272725e-06
2988.5130777567565	5.95662143529011e-06
2959.352612100661	7.079457843841388e-06
2942.0275386285807	8.413951416451948e-06
2924.0299363057325	1e-05       
2902.920261519926	1.188502227437019e-05
2878.042880618287	1.4125375446227555e-05
2852.5094094058422	1.678804018122562e-05
2827.767888244072	1.9952623149688786e-05
2802.668557046682	2.371373705661655e-05
2777.3120686922402	2.818382931264455e-05
2752.353854740974	3.349654391578279e-05
2729.7152339722825	3.981071705534977e-05
2709.2225063794585	4.731512589614803e-05
2691.726263653374	5.623413251903491e-05
2677.4623062244873	6.683439175686148e-05
2665.437254460577	7.943282347242821e-05
2656.009189865764	9.440608762859246e-05
2648.7153308426314	0.00011220184543019629
2643.1221427890614	0.0001333521432163324
2638.643229553041	0.00015848931924611142
2635.4984306369493	0.00018836490894898024
2633.8940255062025	0.00022387211385683424
2633.387025444	0.0002660725059798809
2633.5687783352187	0.0003162277660168379
2633.7933536011196	0.00037583740428844437
2633.6383291200195	0.0004466835921509635
2633.1312165607665	0.0005308844442309889
2631.828305605868	0.000630957344480193
2629.5328191705576	0.0007498942093324559
2626.4093560412375	0.0008912509381337458
2621.7748511211034	0.0010592537251772895
2615.401044567495	0.0012589254117941673
2607.312997817899	0.0014962356560944345
2597.27565559043	0.0017782794100389225
2583.9147057234923	0.0021134890398366475
2565.9955330824555	0.002511886431509582
2546.003440789458	0.0029853826189179603
2525.1767792280134	0.0035481338923357567
2504.731004633672	0.004216965034285822
2487.023059829842	0.0050118723362727255
2471.7887535563355	0.005956621435290103
2458.721467297282	0.00707945784384138
2447.8022595196003	0.008413951416451957
2438.7      	0.01        
2431.0060315331825	0.01188502227437019
2424.703189294947	0.014125375446227554
2419.68473554625	0.016788040181225587
2415.688624910444	0.01995262314968883
2412.1103981490965	0.023713737056616554
2409.552499355854	0.02818382931264455
2408.5030914464364	0.033496543915782793
2409.1198976306246	0.03981071705534969
2411.3539601522552	0.04731512589614813
2414.880808113854	0.056234132519034905
2421.8757175418923	0.06683439175686148
2431.9269074663403	0.07943282347242821
2444.70655197298	0.09440608762859228
2459.609591751115	0.11220184543019629
2477.5178730882817	0.1333521432163324
2498.2927060872503	0.1584893192461114
2521.107635834064	0.18836490894898023
2545.280770150237	0.22387211385683378
2570.090452475885	0.26607250597988086
2595.0356106384406	0.3162277660168379
2619.667600894764	0.3758374042884443
2643.2709898115486	0.4466835921509634
2665.2150970715143	0.5308844442309879
2684.5992966473445	0.630957344480193
2700.639972235034	0.7498942093324559
2714.0258704133034	0.8912509381337458
2724.6185193949914	1.0592537251772898
2732.4684965019137	1.2589254117941662
2737.0440861795983	1.4962356560944328
2739.954121502949	1.7782794100389228
2741.7401366929626	2.1134890398366473
2742.7097150150944	2.511886431509582
2743.1912365616113	2.9853826189179573
2743.4264852420993	3.548133892335753
2743.5534972685214	4.216965034285823
2743.6325019627657	5.011872336272725
2743.6875355373822	5.956621435290109
2743.608295141578	7.079457843841373
2743.6      	8.413951416451948
2743.6      	10.0        
