# T(K)	P(bar)
3249.3      	1e-08       
3248.9922412613273	1.1885022274370215e-08
3248.735747505272	1.4125375446227554e-08
3248.499102090956	1.6788040181225588e-08
3248.2592416606963	1.9952623149688826e-08
3248.02069320994	2.3713737056616554e-08
3247.789296814611	2.818382931264461e-08
3247.5546371696546	3.3496543915782795e-08
3247.2892465183654	3.981071705534969e-08
3246.968536875355	4.731512589614813e-08
3246.6550392787685	5.6234132519034905e-08
3246.2174569474864	6.683439175686162e-08
3245.7040239982607	7.94328234724282e-08
3245.104027349148	9.440608762859226e-08
3244.3779543798464	1.1220184543019653e-07
3243.603218197204	1.333521432163324e-07
3242.595746423913	1.584893192461114e-07
3241.420192115133	1.883649089489802e-07
3240.079693237927	2.2387211385683422e-07
3238.484215274863	2.6607250597988136e-07
3236.5762646112316	3.162277660168379e-07
3234.318342032998	3.7583740428844433e-07
3231.655763982594	4.466835921509635e-07
3228.519473323735	5.308844442309889e-07
3224.815988038922	6.309573444801942e-07
3220.51702279902	7.498942093324558e-07
3215.5109117667707	8.912509381337459e-07
3210.0554068114056	1.0592537251772896e-06
3204.435819606861	1.2589254117941687e-06
3196.5254781301855	1.4962356560944327e-06
3186.087306566946	1.7782794100389227e-06
3172.8152486832328	2.1134890398366474e-06
3156.255397694333	2.511886431509582e-06
3135.870985558447	2.9853826189179636e-06
3112.6249905479926	3.5481338923357534e-06
3088.455354952794	4.216965034285822e-06
3063.466869952237	5.011872336272725e-06
3036.876537266084	5.95662143529011e-06
3005.5765809232644	7.079457843841388e-06
2962.9300703232825	8.413951416451948e-06
2899.86424021838	1e-05       
2814.515784237089	1.188502227437019e-05
2713.4507307071626	1.4125375446227555e-05
2655.200059378466	1.678804018122562e-05
2634.052663188667	1.9952623149688786e-05
2625.0592336070013	2.371373705661655e-05
2619.1545327481226	2.818382931264455e-05
2613.1081655435237	3.349654391578279e-05
2607.1020008497894	3.981071705534977e-05
2601.4179201312413	4.731512589614803e-05
2596.200409833527	5.623413251903491e-05
2591.440488483578	6.683439175686148e-05
2586.821594428566	7.943282347242821e-05
2582.7773156084977	9.440608762859246e-05
2579.407468872051	0.00011220184543019629
2576.487499958916	0.0001333521432163324
2573.687825858911	0.00015848931924611142
2570.9361268073308	0.00018836490894898024
2568.2229936892404	0.00022387211385683424
2565.303003842008	0.0002660725059798809
2562.04539885998	0.0003162277660168379
2558.327193629104	0.00037583740428844437
2554.296557120514	0.0004466835921509635
2549.491134556227	0.0005308844442309889
2544.0344082628553	0.000630957344480193
2538.0485311403604	0.0007498942093324559
2531.721516083532	0.0008912509381337458
2524.675185297402	0.0010592537251772895
2516.7707687408097	0.0012589254117941673
2508.1067351615116	0.0014962356560944345
2498.844988255983	0.0017782794100389225
2489.4369821366604	0.0021134890398366475
2479.708019508182	0.002511886431509582
2469.938955536239	0.0029853826189179603
2460.4571956168775	0.0035481338923357567
2451.513019764474	0.004216965034285822
2443.3221201856095	0.0050118723362727255
2435.5994566410686	0.005956621435290103
2428.372732328043	0.00707945784384138
2421.7218736592	0.008413951416451957
2415.6      	0.01        
2409.9834030192237	0.01188502227437019
2404.8506976107083	0.014125375446227554
2400.318368182598	0.016788040181225587
2396.388624910444	0.01995262314968883
2392.8103981490963	0.023713737056616554
2390.1120305655945	0.02818382931264455
2388.663911508964	0.033496543915782793
2388.6153255561294	0.03981071705534969
2389.975302340643	0.04731512589614813
2392.718406310775	0.056234132519034905
2398.5556027351895	0.06683439175686148
2407.4349554628616	0.07943282347242821
2419.319453017046	0.09440608762859228
2433.9293603966325	0.11220184543019629
2452.5323595442924	0.1333521432163324
2475.212351903084	0.1584893192461114
2501.4456774095115	0.18836490894898023
2530.8061352414625	0.22387211385683378
2562.7156945027455	0.26607250597988086
2596.7895405045297	0.3162277660168379
2631.8105723586445	0.3758374042884443
2666.81782240703	0.4466835921509634
2700.9304846215114	0.5308844442309879
2732.764698559053	0.630957344480193
2760.3624393533673	0.7498942093324559
2784.5011223276015	0.8912509381337458
2804.878890729482	1.0592537251772898
2821.4826182252045	1.2589254117941662
2833.1154733379626	1.4962356560944328
2841.601605993099	1.7782794100389228
2847.6991279642048	2.1134890398366473
2851.7851467471705	2.511886431509582
2854.353261661928	2.9853826189179573
2855.5324262104955	3.548133892335753
2856.2209836111288	4.216965034285823
2856.565003925531	5.011872336272725
2856.7124644626174	5.956621435290109
2856.7917048584222	7.079457843841373
2856.8      	8.413951416451948
2856.8      	10.0        
