# T(K)	P(bar)
3241.0      	1e-08       
3240.692241261327	1.1885022274370215e-08
3240.380996673696	1.4125375446227554e-08
3240.099102090956	1.6788040181225588e-08
3239.859241660696	1.9952623149688826e-08
3239.62069320994	2.3713737056616554e-08
3239.3892968146115	2.818382931264461e-08
3239.106182892873	3.3496543915782795e-08
3238.7892465183654	3.981071705534969e-08
3238.460671094194	4.731512589614813e-08
3238.0687990984607	5.6234132519034905e-08
3237.6174569474865	6.683439175686162e-08
3237.104023998261	7.94328234724282e-08
3236.482252610164	9.440608762859226e-08
3235.675749817831	1.1220184543019653e-07
3234.823540016924	1.333521432163324e-07
3233.795746423913	1.584893192461114e-07
3232.5477161295244	1.883649089489802e-07
3231.04766256172	2.2387211385683422e-07
3229.2926368023486	2.6607250597988136e-07
3227.23036578013	3.162277660168379e-07
3224.8162995835137	3.7583740428844433e-07
3221.965429560167	4.466835921509635e-07
3218.578577436393	5.308844442309889e-07
3214.5599019145748	6.309573444801942e-07
3209.885182693671	7.498942093324558e-07
3204.442295398664	8.912509381337459e-07
3198.558666035606	1.0592537251772896e-06
3192.576659360677	1.2589254117941687e-06
3183.658137107562	1.4962356560944327e-06
3171.671478403563	1.7782794100389227e-06
3156.473556489662	2.1134890398366474e-06
3137.6519651113135	2.511886431509582e-06
3114.6191844695836	2.9853826189179636e-06
3089.1356332077016	3.5481338923357534e-06
3062.436447823066	4.216965034285822e-06
3034.761803218206	5.011872336272725e-06
3005.3530298361484	5.95662143529011e-06
2970.724976869535	7.079457843841388e-06
2918.6287906081748	8.413951416451948e-06
2843.2943585077346	1e-05       
2752.5869623675126	1.188502227437019e-05
2664.1181175140673	1.4125375446227555e-05
2630.385825270104	1.678804018122562e-05
2617.643813326206	1.9952623149688786e-05
2610.941416482488	2.371373705661655e-05
2605.2369576682227	2.818382931264455e-05
2599.5175844621367	3.349654391578279e-05
2594.1274366600674	3.981071705534977e-05
2589.1226908188305	4.731512589614803e-05
2584.5453620196154	5.623413251903491e-05
2580.3590417961877	6.683439175686148e-05
2576.3772365763502	7.943282347242821e-05
2572.8784461996615	9.440608762859246e-05
2570.0560930271995	0.00011220184543019629
2567.6899999671327	0.0001333521432163324
2565.4591799483023	0.00015848931924611142
2563.336440679941	0.00018836490894898024
2561.243452274557	0.00022387211385683424
2559.038131062006	0.0002660725059798809
2556.574659977376	0.0003162277660168379
2553.667072022388	0.00037583740428844437
2550.566582400396	0.0004466835921509635
2546.7529076449814	0.0005308844442309889
2542.320255459921	0.000630957344480193
2537.3367103486644	0.0007498942093324559
2531.890672071901	0.0008912509381337458
2525.6911957509733	0.0010592537251772895
2518.54023177225	0.0012589254117941673
2510.5567014111457	0.0014962356560944345
2501.9019215225385	0.0017782794100389225
2492.889209777977	0.0021134890398366475
2483.343326287581	0.002511886431509582
2473.731005039715	0.0029853826189179603
2464.3571956168776	0.0035481338923357567
2455.4018391885593	0.004216965034285822
2447.0549224748597	0.0050118723362727255
2439.176996572519	0.005956621435290103
2431.7930284286954	0.00707945784384138
2424.9635265668003	0.008413951416451957
2418.6      	0.01        
2412.675644280551	0.01188502227437019
2407.28644511598	0.014125375446227554
2402.517470273554	0.016788040181225587
2398.3478665711405	0.01995262314968883
2394.531091359036	0.023713737056616554
2391.601327380206	0.02818382931264455
2389.870094401837	0.033496543915782793
2389.559948815312	0.03981071705534969
2390.7595707783207	0.04731512589614813
2393.3459259501597	0.056234132519034905
2399.028088384352	0.06683439175686148
2407.750390890936	0.07943282347242821
2419.4759035390784	0.09440608762859228
2433.9249673642953	0.11220184543019629
2452.37358477629	0.1333521432163324
2475.0123519030835	0.1584893192461114
2501.209439416707	0.18836490894898023
2530.5061352414623	0.22387211385683378
2562.4156945027453	0.26607250597988086
2596.56248992008	0.3162277660168379
2631.76363603287	0.3758374042884443
2667.0081568294563	0.4466835921509634
2701.4020524243588	0.5308844442309879
2733.787849276661	0.630957344480193
2762.059751542996	0.7498942093324559
2786.9488162744465	0.8912509381337458
2808.144927862931	1.0592537251772898
2825.6326768950526	1.2589254117941662
2838.118608049413	1.4962356560944328
2847.3997097037272	1.7782794100389228
2854.246358695395	2.1134890398366473
2858.9948617622654	2.511886431509582
2862.0444982235394	2.9853826189179573
2863.5344065332943	3.548133892335753
2864.481475416693	4.216965034285823
2864.997505888297	5.011872336272725
2865.2124644626174	5.956621435290109
2865.2917048584222	7.079457843841373
2865.3      	8.413951416451948
2865.3      	10.0        
