# T(K)	P(bar)
3284.4      	1e-08       
3214.3079472672953	1.1885022274370215e-08
3179.1742854533754	1.4125375446227554e-08
3163.464083638235	1.6788040181225588e-08
3154.100630350572	1.9952623149688826e-08
3145.910466874598	2.3713737056616554e-08
3138.808670043209	2.818382931264461e-08
3132.465929241366	3.3496543915782795e-08
3126.994074516299	3.981071705534969e-08
3122.4696371912282	4.731512589614813e-08
3119.1779124270697	5.6234132519034905e-08
3116.6235275620134	6.683439175686162e-08
3114.4852251368934	7.94328234724282e-08
3112.6427304813446	9.440608762859226e-08
3110.9537041976773	1.1220184543019653e-07
3109.3267582141284	1.333521432163324e-07
3107.6361729518635	1.584893192461114e-07
3105.7578121870906	1.883649089489802e-07
3103.6195398568902	2.2387211385683422e-07
3101.226322912294	2.6607250597988136e-07
3098.6926692868255	3.162277660168379e-07
3096.065278358772	3.7583740428844433e-07
3093.376209879163	4.466835921509635e-07
3090.6932808449374	5.308844442309889e-07
3088.329354067397	6.309573444801942e-07
3086.2744314521847	7.498942093324558e-07
3084.459842711626	8.912509381337459e-07
3082.8888517028518	1.0592537251772896e-06
3081.5317381774794	1.2589254117941687e-06
3080.3684526662037	1.4962356560944327e-06
3079.26265480512	1.7782794100389227e-06
3078.237025691746	2.1134890398366474e-06
3077.353713313207	2.511886431509582e-06
3076.711684584518	2.9853826189179636e-06
3076.7      	3.5481338923357534e-06
3077.234972685214	4.216965034285822e-06
3078.3175372925466	5.011872336272725e-06
3079.8866826402027	5.95662143529011e-06
3081.7092117437087	7.079457843841388e-06
3083.6237272187705	8.413951416451948e-06
3085.3444949954505	1e-05       
3086.665575924678	1.188502227437019e-05
3087.3930974942455	1.4125375446227555e-05
3087.315013484422	1.678804018122562e-05
3086.173886398717	1.9952623149688786e-05
3084.061799678987	2.371373705661655e-05
3080.8872635786483	2.818382931264455e-05
3076.5128750028302	3.349654391578279e-05
3070.814718754928	3.981071705534977e-05
3064.0401218602	4.731512589614803e-05
3056.0807650225834	5.623413251903491e-05
3046.843870341936	6.683439175686148e-05
3036.3319045615644	7.943282347242821e-05
3024.503536909945	9.440608762859246e-05
3010.9859685154042	0.00011220184543019629
2995.406785454871	0.0001333521432163324
2977.3899113559396	0.00015848931924611142
2957.027338374248	0.00018836490894898024
2934.6080896664566	0.00022387211385683424
2909.8972890180667	0.0002660725059798809
2882.8778214385393	0.0003162277660168379
2853.6471538110027	0.00037583740428844437
2824.4250391237274	0.0004466835921509635
2795.9875493746767	0.0005308844442309889
2768.3306000149714	0.000630957344480193
2741.8651965689905	0.0007498942093324559
2717.3580243235547	0.0008912509381337458
2695.6546420496734	0.0010592537251772895
2674.472596733926	0.0012589254117941673
2653.9822920425513	0.0014962356560944345
2634.3355231252103	0.0017782794100389225
2615.8357463863736	0.0021134890398366475
2597.430839861854	0.002511886431509582
2578.6080348311675	0.0029853826189179603
2559.7367159598098	0.0035481338923357567
2541.303678377118	0.004216965034285822
2524.609844949719	0.0050118723362727255
2509.5275235220606	0.005956621435290103
2496.222207548912	0.00707945784384138
2484.9244633964	0.008413951416451957
2475.5      	0.01        
2468.267669641192	0.01188502227437019
2461.829435137067	0.014125375446227554
2456.0466133646814	0.016788040181225587
2450.771247100824	0.01995262314968883
2445.9207619354415	0.023713737056616554
2441.285936292226	0.02818382931264455
2436.350472009184	0.033496543915782793
2431.061814071395	0.03981071705534969
2425.4022006317464	0.04731512589614813
2419.4457462966025	0.056234132519034905
2413.4906974927426	0.06683439175686148
2407.613393124718	0.07943282347242821
2401.875768271149	0.09440608762859228
2396.252833416704	0.11220184543019629
2391.081045271919	0.1333521432163324
2386.2607083683333	0.1584893192461114
2381.8518623669856	0.18836490894898023
2377.927355799646	0.22387211385683378
2374.5768520772117	0.26607250597988086
2372.138568117927	0.3162277660168379
2370.330596729902	0.3758374042884443
2369.0988852585774	0.4466835921509634
2368.348880140823	0.5308844442309879
2367.9548923445664	0.630957344480193
2367.7672639578605	0.7498942093324559
2367.7      	0.8912509381337458
2367.7      	1.0592537251772898
2367.704550788168	1.2589254117941662
2367.7821031555864	1.4962356560944328
2367.8      	1.7782794100389228
2367.8385811923545	2.1134890398366473
2367.9365716716984	2.511886431509582
2368.0970788538702	2.9853826189179573
2368.1754950806994	3.548133892335753
2368.3604918055644	4.216965034285823
2368.597505888297	5.011872336272725
2368.84985785047	5.956621435290109
2369.1668194336885	7.079457843841373
2369.544745443754	8.413951416451948
2370.0      	10.0        
