# T(K)	P(bar)
3290.6      	1e-08       
3224.047172762031	1.1885022274370215e-08
3184.3349498010407	1.4125375446227554e-08
3163.156900365882	1.6788040181225588e-08
3152.1870442374707	1.9952623149688826e-08
3143.9173646112445	2.3713737056616554e-08
3136.387263672432	2.818382931264461e-08
3129.236023643203	3.3496543915782795e-08
3122.5956838489433	3.981071705534969e-08
3116.6123215680036	4.731512589614813e-08
3111.7531088209125	5.6234132519034905e-08
3107.7758984044726	6.683439175686162e-08
3104.350990847452	7.94328234724282e-08
3101.3378841355743	9.440608762859226e-08
3098.5294540155082	1.1220184543019653e-07
3096.0502982310527	1.333521432163324e-07
3093.561706111802	1.584893192461114e-07
3090.9679082446573	1.883649089489802e-07
3088.191417152061	2.2387211385683422e-07
3085.160009022239	2.6607250597988136e-07
3081.863175131318	3.162277660168379e-07
3078.2509812123835	3.7583740428844433e-07
3074.3342033446024	4.466835921509635e-07
3070.1581294927223	5.308844442309889e-07
3065.9818588524013	6.309573444801942e-07
3061.8824948832994	7.498942093324558e-07
3057.771991476407	8.912509381337459e-07
3053.7149254964543	1.0592537251772896e-06
3049.7724605915987	1.2589254117941687e-06
3045.894842220679	1.4962356560944327e-06
3042.009481446856	1.7782794100389227e-06
3037.9166156128585	2.1134890398366474e-06
3033.5394215207534	2.511886431509582e-06
3028.884713237756	2.9853826189179636e-06
3024.345790238718	3.5481338923357534e-06
3019.743661157236	4.216965034285822e-06
3015.1148861595943	5.011872336272725e-06
3010.489525630802	5.95662143529011e-06
3005.9728230699393	7.079457843841388e-06
3001.2941055862	8.413951416451948e-06
2995.9053685168337	1e-05       
2989.556701492965	1.188502227437019e-05
2981.9786018152176	1.4125375446227555e-05
2972.686604646163	1.678804018122562e-05
2961.3905962558324	1.9952623149688786e-05
2947.7282610778143	2.371373705661655e-05
2931.4163234840676	2.818382931264455e-05
2912.26562838924	3.349654391578279e-05
2890.39702873513	3.981071705534977e-05
2865.523484559202	4.731512589614803e-05
2837.7075751206603	5.623413251903491e-05
2807.035227744283	6.683439175686148e-05
2773.906608315233	7.943282347242821e-05
2739.2412818277107	9.440608762859246e-05
2701.4982746322526	0.00011220184543019629
2661.675356545382	0.0001333521432163324
2621.406059121144	0.00015848931924611142
2585.3194915589947	0.00018836490894898024
2554.03247199633	0.00022387211385683424
2527.028619790062	0.0002660725059798809
2505.1230732051295	0.0003162277660168379
2488.9114896822744	0.00037583740428844437
2477.517190321453	0.0004466835921509635
2467.433856691878	0.0005308844442309889
2458.8990696205383	0.000630957344480193
2452.1051391516844	0.0007498942093324559
2446.979456067672	0.0008912509381337458
2443.387592648701	0.0010592537251772895
2440.7394483466287	0.0012589254117941673
2439.150033750366	0.0014962356560944345
2438.6797065731776	0.0017782794100389225
2439.2331186978436	0.0021134890398366475
2440.247147455791	0.002511886431509582
2441.850618793447	0.0029853826189179603
2444.0376120057413	0.0035481338923357567
2446.695660078509	0.004216965034285822
2449.4259599381303	0.0050118723362727255
2452.387971336718	0.005956621435290103
2455.812893584348	0.00707945784384138
2459.8085947555996	0.008413951416451957
2464.4      	0.01        
2469.401079503431	0.01188502227437019
2475.827574841846	0.014125375446227554
2483.868651089069	0.016788040181225587
2493.547711381769	0.01995262314968883
2504.3619078160646	0.023713737056616554
2516.888675196379	0.02818382931264455
2531.1516754188838	0.033496543915782793
2546.8038043041797	0.03981071705534969
2563.336082481536	0.04731512589614813
2579.6379575040355	0.056234132519034905
2596.14403553965	0.06683439175686148
2612.398739478516	0.07943282347242821
2627.745255105177	0.09440608762859228
2641.511905295941	0.11220184543019629
2652.473008528172	0.1333521432163324
2661.5907249370002	0.1584893192461114
2668.9178494603148	0.18836490894898023
2674.484751567079	0.22387211385683378
2678.393672576586	0.26607250597988086
2680.788482466522	0.3162277660168379
2682.467360820614	0.3758374042884443
2683.540891793138	0.4466835921509634
2684.1306719155064	0.5308844442309879
2684.3670645932602	0.630957344480193
2684.4663680210697	0.7498942093324559
2684.5      	0.8912509381337458
2684.5      	1.0592537251772898
2684.495449211832	1.2589254117941662
2684.4178968444135	1.4962356560944328
2684.2803792578743	1.7782794100389228
2684.1614188076455	2.1134890398366473
2684.0634283283016	2.511886431509582
2683.9029211461298	2.9853826189179573
2683.6735147579006	3.548133892335753
2683.439508194436	4.216965034285823
2683.1374901861723	5.011872336272725
2682.7127487616776	5.956621435290109
2682.158065991045	7.079457843841373
2681.4794582012423	8.413951416451948
2680.7      	10.0        
