# T(K)	P(bar)
3290.7      	1e-08       
3224.3010521313677	1.1885022274370215e-08
3184.634949801041	1.4125375446227554e-08
3163.423267729534	1.6788040181225588e-08
3152.387044237471	1.9952623149688826e-08
3144.1173646112447	2.3713737056616554e-08
3136.6574980675614	2.818382931264461e-08
3129.5360236432034	3.3496543915782795e-08
3122.8956838489435	3.981071705534969e-08
3116.912321568004	4.731512589614813e-08
3112.0531088209123	5.6234132519034905e-08
3108.075898404473	6.683439175686162e-08
3104.6087085614895	7.94328234724282e-08
3101.5596588745584	9.440608762859226e-08
3098.829454015508	1.1220184543019653e-07
3096.3502982310524	1.333521432163324e-07
3093.8617061118016	1.584893192461114e-07
3091.267908244657	1.883649089489802e-07
3088.507432490165	2.2387211385683422e-07
3085.555798258496	2.6607250597988136e-07
3082.263175131318	3.162277660168379e-07
3078.6509812123836	3.7583740428844433e-07
3074.764314818745	4.466835921509635e-07
3070.6581294927223	5.308844442309889e-07
3066.4818588524013	6.309573444801942e-07
3062.3824948832994	7.498942093324558e-07
3058.3167608710914	8.912509381337459e-07
3054.314925496454	1.0592537251772896e-06
3050.3770113797664	1.2589254117941687e-06
3046.5769453762655	1.4962356560944327e-06
3042.709481446856	1.7782794100389227e-06
3038.6166156128584	2.1134890398366474e-06
3034.2759931924516	2.511886431509582e-06
3029.781792091626	2.9853826189179636e-06
3025.245790238718	3.5481338923357534e-06
3020.6971584257576	4.216965034285822e-06
3016.14738812236	5.011872336272725e-06
3011.6019900934198	5.95662143529011e-06
3007.164527928361	7.079457843841388e-06
3002.5630546749508	8.413951416451948e-06
2997.2998180163786	1e-05       
2991.083259085433	1.188502227437019e-05
2983.592406826727	1.4125375446227555e-05
2974.4565776773197	1.678804018122562e-05
2963.2531581225703	1.9952623149688786e-05
2949.751535391044	2.371373705661655e-05
2933.6575359441176	2.818382931264455e-05
2914.6703378485468	3.349654391578279e-05
2893.109746640269	3.981071705534977e-05
2868.7160839828825	4.731512589614803e-05
2841.522513645631	5.623413251903491e-05
2811.657515205427	6.683439175686148e-05
2779.723437342328	7.943282347242821e-05
2746.644673601202	9.440608762859246e-05
2711.141788506524	0.00011220184543019629
2673.7564280056463	0.0001333521432163324
2635.4595746881882	0.00015848931924611142
2599.8447269634526	0.00018836490894898024
2567.136153563545	0.00022387211385683424
2537.718649076069	0.0002660725059798809
2512.8518809590264	0.0003162277660168379
2493.635056095147	0.00037583740428844437
2480.4579752016807	0.0004466835921509635
2468.4103105143686	0.0005308844442309889
2458.088985255595	0.000630957344480193
2449.84853114036	0.0007498942093324559
2443.5215160835323	0.0008912509381337458
2438.84903388961	0.0010592537251772895
2435.2656601970903	0.0012589254117941673
2433.0250506255493	0.0014962356560944345
2432.2569332665553	0.0017782794100389225
2432.6522276413166	0.0021134890398366475
2433.6471474557907	0.002511886431509582
2435.388693048661	0.0029853826189179603
2437.9152872796867	0.0035481338923357567
2441.129201806253	0.004216965034285822
2444.327553070381	0.0050118723362727255
2447.694121508092	0.005956621435290103
2451.6317091817396	0.00707945784384138
2456.2447379712	0.008413951416451957
2461.4      	0.01        
2466.478019188099	0.01188502227437019
2472.818073178694	0.014125375446227554
2480.5332226346327	0.016788040181225587
2489.557505798352	0.01995262314968883
2499.258476129117	0.023713737056616554
2510.2839872937875	0.02818382931264455
2522.9341356064665	0.033496543915782793
2536.866971784781	0.03981071705534969
2551.5237063901827	0.04731512589614813
2565.709472635723	0.056234132519034905
2580.1225918033388	0.06683439175686148
2594.299400043484	0.07943282347242821
2607.666210847538	0.09440608762859228
2619.6767610372435	0.11220184543019629
2629.402810384153	0.1333521432163324
2637.67483119225	0.1584893192461114
2644.436659496294	0.18836490894898023
2649.6687362289754	0.22387211385683378
2653.4978833403293	0.26607250597988086
2655.961431882073	0.3162277660168379
2657.6673608206142	0.3758374042884443
2658.7710032672803	0.4466835921509634
2659.440895887342	0.5308844442309879
2659.7560861243473	0.630957344480193
2659.86636802107	0.7498942093324559
2659.9      	0.8912509381337458
2659.9      	1.0592537251772898
2659.895449211832	1.2589254117941662
2659.8178968444136	1.4962356560944328
2659.8      	1.7782794100389228
2659.722837615291	2.1134890398366473
2659.581714164151	2.511886431509582
2659.501460573065	2.9853826189179573
2659.3490098386005	3.548133892335753
2659.193005462957	4.216965034285823
2659.002494111703	5.011872336272725
2658.737677686913	5.956621435290109
2658.3414757078895	7.079457843841373
2657.955254556246	8.413951416451948
2657.5      	10.0        
