# T(K)	P(bar)
3290.7      	1e-08       
3224.2241124466996	1.1885022274370215e-08
3184.4801989694647	1.4125375446227554e-08
3163.256900365882	1.6788040181225588e-08
3152.2734581243694	1.9952623149688826e-08
3143.9242623478913	2.3713737056616554e-08
3136.457498067561	2.818382931264461e-08
3129.336023643203	3.3496543915782795e-08
3122.6956838489436	3.981071705534969e-08
3116.7123215680035	4.731512589614813e-08
3111.8531088209124	5.6234132519034905e-08
3107.8758984044725	6.683439175686162e-08
3104.408708561489	7.94328234724282e-08
3101.359658874558	9.440608762859226e-08
3098.629454015508	1.1220184543019653e-07
3096.1502982310526	1.333521432163324e-07
3093.6042594277956	1.584893192461114e-07
3090.9679082446573	1.883649089489802e-07
3088.191417152061	2.2387211385683422e-07
3085.160009022239	2.6607250597988136e-07
3081.863175131318	3.162277660168379e-07
3078.2509812123835	3.7583740428844433e-07
3074.364314818745	4.466835921509635e-07
3070.2479055208873	5.308844442309889e-07
3065.9928373213147	6.309573444801942e-07
3061.8824948832994	7.498942093324558e-07
3057.8167608710914	8.912509381337459e-07
3053.790740302504	1.0592537251772896e-06
3049.7770113797665	1.2589254117941687e-06
3045.9769453762656	1.4962356560944327e-06
3042.0496710757934	1.7782794100389227e-06
3037.9166156128585	2.1134890398366474e-06
3033.5577073566024	2.511886431509582e-06
3028.983252664691	2.9853826189179636e-06
3024.3702951580185	3.5481338923357534e-06
3019.743661157236	4.216965034285822e-06
3015.1148861595943	5.011872336272725e-06
3010.489525630802	5.95662143529011e-06
3005.9728230699393	7.079457843841388e-06
3001.2251564974495	8.413951416451948e-06
2995.852593266606	1e-05       
2989.556701492965	1.188502227437019e-05
2981.9786018152176	1.4125375446227555e-05
2972.686604646163	1.678804018122562e-05
2961.3905962558324	1.9952623149688786e-05
2947.769352515558	2.371373705661655e-05
2931.5163234840675	2.818382931264455e-05
2912.3679831188933	3.349654391578279e-05
2890.6533876876997	3.981071705534977e-05
2866.0478270870194	4.731512589614803e-05
2838.5825409678664	5.623413251903491e-05
2808.398238549122	6.683439175686148e-05
2776.1456162684362	7.943282347242821e-05
2742.61513309449	9.440608762859246e-05
2706.5433609006395	0.00011220184543019629
2668.5539279974296	0.0001333521432163324
2629.7238976434924	0.00015848931924611142
2593.7945700271475	0.00018836490894898024
2561.036153563545	0.00022387211385683424
2531.836212686068	0.0002660725059798809
2507.5040681881615	0.0003162277660168379
2489.148348892908	0.00037583740428844437
2476.281316961641	0.0004466835921509635
2464.4861043040814	0.0005308844442309889
2454.2889852555954	0.000630957344480193
2446.0827455418703	0.0007498942093324559
2439.915908081417	0.0008912509381337458
2435.1748511211035	0.0010592537251772895
2431.4613350789923	0.0012589254117941673
2429.0313132819365	0.0014962356560944345
2428.0341599599333	0.0017782794100389225
2428.2713365847903	0.0021134890398366475
2429.044187286693	0.002511886431509582
2430.642668296923	0.0029853826189179603
2433.0899050976946	0.0035481338923357567
2436.229201806253	0.004216965034285822
2439.427553070381	0.0050118723362727255
2442.916581576641	0.005956621435290103
2447.011413081087	0.00707945784384138
2451.8419831252	0.008413951416451957
2457.4      	0.01        
2463.0165969807763	0.01188502227437019
2470.010830662878	0.014125375446227554
2478.469548998113	0.016788040181225587
2488.3205391555666	0.01995262314968883
2498.9757032893576	0.023713737056616554
2511.137503220731	0.02818382931264455
2525.009404034975	0.033496543915782793
2540.154608970502	0.03981071705534969
2555.9416931076016	0.04731512589614813
2571.3030753403414	0.056234132519034905
2586.8151922592037	0.06683439175686148
2602.006787475037	0.07943282347242821
2616.283958237374	0.09440608762859228
2629.092136650424	0.11220184543019629
2639.358522072161	0.1333521432163324
2647.9467957738334	0.1584893192461114
2654.9453734747067	0.18836490894898023
2660.384751567079	0.22387211385683378
2664.2936725765862	0.26607250597988086
2666.761431882073	0.3162277660168379
2668.5183820453562	0.3758374042884443
2669.7011147414228	0.4466835921509634
2670.440895887342	0.5308844442309879
2670.7560861243473	0.630957344480193
2670.93273604214	0.7498942093324559
2671.0      	0.8912509381337458
2671.0      	1.0592537251772898
2670.995449211832	1.2589254117941662
2670.9178968444135	1.4962356560944328
2670.8401896289374	1.7782794100389228
2670.8      	2.1134890398366473
2670.763428328302	2.511886431509582
2670.6029211461296	2.9853826189179573
2670.4490098386004	3.548133892335753
2670.293005462957	4.216965034285823
2670.102494111703	5.011872336272725
2669.8626066121474	5.956621435290109
2669.6248854247337	7.079457843841373
2669.2552545562457	8.413951416451948
2668.9      	10.0        
