# T(K)	P(bar)
3353.0      	1e-08       
3325.0708944654534	1.1885022274370215e-08
3309.691893558264	1.4125375446227554e-08
3300.1667773653676	1.6788040181225588e-08
3290.9794608444336	1.9952623149688826e-08
3280.3242967106426	2.3713737056616554e-08
3267.811324803621	2.818382931264461e-08
3253.354507473989	3.3496543915782795e-08
3237.0531817692818	3.981071705534969e-08
3219.167272989433	4.731512589614813e-08
3200.9060379882676	5.6234132519034905e-08
3183.290878355323	6.683439175686162e-08
3166.770389665335	7.94328234724282e-08
3152.090239674495	9.440608762859226e-08
3139.9530890542783	1.1220184543019653e-07
3131.276043808684	1.333521432163324e-07
3123.887245123449	1.584893192461114e-07
3117.200960575664	1.883649089489802e-07
3110.7867422755003	2.2387211385683422e-07
3104.2452826269373	2.6607250597988136e-07
3097.626350262636	3.162277660168379e-07
3090.8101322227035	3.7583740428844433e-07
3083.850190275481	4.466835921509635e-07
3076.8514103376597	5.308844442309889e-07
3070.3112129197984	6.309573444801942e-07
3064.2896623776237	7.498942093324558e-07
3058.4318341880326	8.912509381337459e-07
3052.658666035606	1.0592537251772896e-06
3046.8450385228934	1.2589254117941687e-06
3040.7959538642594	1.4962356560944327e-06
3034.256308088593	1.7782794100389227e-06
3027.0576243416162	2.1134890398366474e-06
3019.088558056601	2.511886431509582e-06
3010.2606630371224	2.9853826189179636e-06
3000.6631149125383	3.5481338923357534e-06
2989.9498906014364	4.216965034285822e-06
2978.03468203197	5.011872336272725e-06
2964.868861191466	5.95662143529011e-06
2950.684830342441	7.079457843841388e-06
2935.6859786048394	8.413951416451948e-06
2919.3994540491353	1e-05       
2901.573062622799	1.188502227437019e-05
2881.888005906011	1.4125375446227555e-05
2860.2587351847656	1.678804018122562e-05
2836.01764077712	1.9952623149688786e-05
2808.631802284034	2.371373705661655e-05
2777.8629584693867	2.818382931264455e-05
2743.648993261142	3.349654391578279e-05
2707.6120050987356	3.981071705534977e-05
2668.179385751785	4.731512589614803e-05
2625.7388182823584	5.623413251903491e-05
2581.145725609533	6.683439175686148e-05
2536.7884154605404	7.943282347242821e-05
2499.3367594630554	9.440608762859246e-05
2466.724885269776	0.00011220184543019629
2439.6446425343415	0.0001333521432163324
2418.48561372751	0.00015848931924611142
2404.2553986321964	0.00018836490894898024
2393.607605311772	0.00022387211385683424
2385.183855020018	0.0002660725059798809
2378.8619899660634	0.0003162277660168379
2374.5903344184694	0.00037583740428844437
2372.032430480326	0.0004466835921509635
2370.0522476122032	0.0005308844442309889
2368.9131356934363	0.000630957344480193
2368.788179208304	0.0007498942093324559
2369.669155988369	0.0008912509381337458
2371.035289833117	0.0010592537251772895
2372.908389094322	0.0012589254117941673
2375.481077029374	0.0014962356560944345
2378.8807193188645	0.0017782794100389225
2382.9127219414313	0.0021134890398366475
2387.256243212863	0.002511886431509582
2392.0455841112253	0.0029853826189179603
2397.3275171034356	0.0035481338923357567
2403.119271596804	0.004216965034285822
2408.9699141531355	0.0050118723362727255
2415.2208628105345	0.005956621435290103
2422.3851949673917	0.00707945784384138
2430.6755366036	0.008413951416451957
2440.1      	0.01        
2450.332978060867	0.01188502227437019
2462.707641367931	0.014125375446227554
2477.3955883603926	0.016788040181225587
2494.4470810311973	0.01995262314968883
2513.4514409414664	0.023713737056616554
2534.765630636279	0.02818382931264455
2558.6538228469517	0.033496543915782793
2584.6417343093462	0.03981071705534969
2612.021560281786	0.04731512589614813
2639.139102386521	0.056234132519034905
2666.0237398703666	0.06683439175686148
2691.961202364234	0.07943282347242821
2715.97030583065	0.09440608762859228
2737.165661427743	0.11220184543019629
2753.5301254082574	0.1333521432163324
2766.67019366075	0.1584893192461114
2776.8237992804197	0.18836490894898023
2784.224981638634	0.22387211385683378
2789.330511120439	0.26607250597988086
2792.445027206479	0.3162277660168379
2794.6734881690663	0.3758374042884443
2796.1914491638495	0.4466835921509634
2797.1715678028477	0.5308844442309879
2797.7231507176075	0.630957344480193
2797.9991040632094	0.7498942093324559
2798.1447693946843	0.8912509381337458
2798.2      	1.0592537251772898
2798.2      	1.2589254117941662
2798.2      	1.4962356560944328
2798.140189628937	1.7782794100389228
2798.1      	2.1134890398366473
2798.081714164151	2.511886431509582
2798.001460573065	2.9853826189179573
2797.9245049193005	3.548133892335753
2797.9      	4.216965034285823
2797.8349960744686	5.011872336272725
2797.6875355373822	5.956621435290109
2797.608295141578	7.079457843841373
2797.4621018224984	8.413951416451948
2797.2      	10.0        
