# T(K)	P(bar)
2762.9      	1e-08       
2737.1252056361623	1.1885022274370215e-08
2718.176079526907	1.4125375446227554e-08
2704.5277572747545	1.6788040181225588e-08
2694.840283178103	1.9952623149688826e-08
2688.6380234584335	2.3713737056616554e-08
2684.5882802435212	2.818382931264461e-08
2681.4041003126376	3.3496543915782795e-08
2678.7970372581494	3.981071705534969e-08
2676.479758127485	4.731512589614813e-08
2674.28527495138	5.6234132519034905e-08
2672.11479908827	6.683439175686162e-08
2669.8738137070795	7.94328234724282e-08
2667.5467578304924	9.440608762859226e-08
2665.136067701554	1.1220184543019653e-07
2662.8893327718915	1.333521432163324e-07
2660.5765994798144	1.584893192461114e-07
2658.212860215874	1.883649089489802e-07
2655.8195398568905	2.2387211385683422e-07
2653.4263229122944	2.6607250597988136e-07
2650.965618702376	3.162277660168379e-07
2648.365278358772	3.7583740428844433e-07
2645.646098405021	4.466835921509635e-07
2642.821713042089	5.308844442309889e-07
2639.9062033497894	6.309573444801942e-07
2637.1107512414865	7.498942093324558e-07
2634.333071186043	8.912509381337459e-07
2632.206518448401	1.0592537251772896e-06
2631.5863476354957	1.2589254117941687e-06
2631.3536905332408	1.4962356560944327e-06
2631.240189628937	1.7782794100389227e-06
2632.2031110012163	2.1134890398366474e-06
2634.659434284907	2.511886431509582e-06
2638.4313530659565	2.9853826189179636e-06
2641.670793389387	3.5481338923357534e-06
2644.893388009378	4.216965034285822e-06
2649.69267468614	5.011872336272725e-06
2656.634834696313	5.95662143529011e-06
2662.5778643816584	7.079457843841388e-06
2667.1300980587966	8.413951416451948e-06
2673.1030027297543	1e-05       
2680.508874431713	1.188502227437019e-05
2688.5107854258313	1.4125375446227555e-05
2694.2890021528065	1.678804018122562e-05
2699.9044544051317	1.9952623149688786e-05
2709.5033615408615	2.371373705661655e-05
2722.120022363304	2.818382931264455e-05
2732.7153817530084	3.349654391578279e-05
2740.261588675906	3.981071705534977e-05
2750.0837315777458	4.731512589614803e-05
2761.2789890773006	5.623413251903491e-05
2772.5597463765394	6.683439175686148e-05
2781.4789900689757	7.943282347242821e-05
2788.6146976851287	9.440608762859246e-05
2799.766193526505	0.00011220184543019629
2813.5203573506237	0.0001333521432163324
2827.3576158255305	0.00015848931924611142
2838.443032004753	0.00018836490894898024
2851.454916907468	0.00022387211385683424
2865.6368790139622	0.0002660725059798809
2879.7306212078925	0.0003162277660168379
2892.1317119104497	0.00037583740428844437
2904.533670398418	0.0004466835921509635
2921.3119155975846	0.0005308844442309889
2937.988725065488	0.000630957344480193
2952.1463297079554	0.0007498942093324559
2963.5990278487966	0.0008912509381337458
2974.533953127923	0.0010592537251772895
2985.1376203535124	0.0012589254117941673
2994.2808745271777	0.0014962356560944345
3001.1401324652193	0.0017782794100389225
3006.2789593371185	0.0021134890398366475
3011.4327771098565	0.002511886431509582
3014.0602475173787	0.0029853826189179603
3013.381655264376	0.0035481338923357567
3009.3192352356646	0.004216965034285822
3002.6104984377375	0.0050118723362727255
2993.1788655099995	0.005956621435290103
2980.16946201489	0.00707945784384138
2963.3182932692002	0.008413951416451957
2943.1      	0.01        
2920.9413708155666	0.01188502227437019
2896.9439863903876	0.014125375446227554
2871.232168914362	0.016788040181225587
2843.949757622856	0.01995262314968883
2815.5624919828306	0.023713737056616554
2787.2537425923188	0.02818382931264455
2759.147186019249	0.033496543915782793
2731.513642431471	0.03981071705534969
2704.215513468924	0.04731512589614813
2676.470976171016	0.056234132519034905
2650.4326177609173	0.06683439175686148
2625.3347736375054	0.07943282347242821
2600.553858264236	0.09440608762859228
2574.9102939230597	0.11220184543019629
2550.672361423619	0.1333521432163324
2528.0926508583607	0.1584893192461114
2506.3882179284747	0.18836490894898023
2484.6875826261476	0.22387211385683378
2461.712699958023	0.26607250597988086
2439.928264814691	0.3162277660168379
2418.0650782969806	0.3758374042884443
2395.848341343598	0.4466835921509634
2373.5053508721567	0.5308844442309879
2354.278746414829	0.630957344480193
2342.4412130923647	0.7498942093324559
2336.367379370097	0.8912509381337458
2335.3255558184974	1.0592537251772898
2338.0414264522988	1.2589254117941662
2345.5640060918827	1.4962356560944328
2354.357623785419	1.7782794100389228
2363.266768774283	2.1134890398366473
2371.7834410924556	2.511886431509582
2380.0495609743302	2.9853826189179573
2387.59851790857	3.548133892335753
2394.921748703971	4.216965034285823
2401.9951687978432	5.011872336272725
2408.847014859871	5.956621435290109
2415.5032081074573	7.079457843841373
2422.1296216325704	8.413951416451948
2431.6      	10.0        
