# T(K)	P(bar)
2735.5      	1e-08       
2731.7299554512597	1.1885022274370215e-08
2728.79322255799	1.4125375446227554e-08
2726.492816727647	1.6788040181225588e-08
2724.7097944165826	1.9952623149688826e-08
2723.596568313052	2.3713737056616554e-08
2722.867890443834	2.818382931264461e-08
2722.3092743393095	3.3496543915782795e-08
2721.8615581479567	3.981071705534969e-08
2721.460671094194	4.731512589614813e-08
2721.0687990984607	5.6234132519034905e-08
2720.7449712983243	6.683439175686162e-08
2720.388588570186	7.94328234724282e-08
2719.991126305082	9.440608762859226e-08
2719.588977189923	1.1220184543019653e-07
2719.2016090986017	1.333521432163324e-07
2718.812766579969	1.584893192461114e-07
2718.3825720431746	1.883649089489802e-07
2717.919923309482	2.2387211385683422e-07
2717.5210538187157	2.6607250597988136e-07
2717.0623035066956	3.162277660168379e-07
2716.5938726515483	3.7583740428844433e-07
2716.089219681004	4.466835921509635e-07
2715.528432197152	5.308844442309889e-07
2714.976849282393	6.309573444801942e-07
2714.501791873581	7.498942093324558e-07
2713.986614237209	8.912509381337459e-07
2712.8502589875525	1.0592537251772896e-06
2710.3816795076314	1.2589254117941687e-06
2708.365317954753	1.4962356560944327e-06
2706.7636029498053	1.7782794100389227e-06
2704.8811454217202	2.1134890398366474e-06
2702.423424073584	2.511886431509582e-06
2699.4540412033957	2.9853826189179636e-06
2696.8331672562103	3.5481338923357534e-06
2694.395081944357	4.216965034285822e-06
2691.6674195266096	5.011872336272725e-06
2688.4512793457698	5.95662143529011e-06
2685.598625096804	7.079457843841388e-06
2683.1625782487245	8.413951416451948e-06
2680.9721565059144	1e-05       
2679.042290558177	1.188502227437019e-05
2677.3757548964195	1.4125375446227555e-05
2675.9702427195875	1.678804018122562e-05
2674.824133865669	1.9952623149688786e-05
2674.669822939689	2.371373705661655e-05
2675.40606230025	2.818382931264455e-05
2676.2105962834394	3.349654391578279e-05
2676.903615286563	3.981071705534977e-05
2678.894740222539	4.731512589614803e-05
2682.0496584720613	5.623413251903491e-05
2685.9816815475074	6.683439175686148e-05
2689.644942349758	7.943282347242821e-05
2693.2647339692426	9.440608762859246e-05
2699.1819174676657	0.00011220184543019629
2706.663928687637	0.0001333521432163324
2714.520572028006	0.00015848931924611142
2721.7536095350165	0.00018836490894898024
2730.5117068102527	0.00022387211385683424
2740.430704747973	0.0002660725059798809
2750.8428378557055	0.0003162277660168379
2760.7954607333972	0.00037583740428844437
2770.019417358824	0.0004466835921509635
2780.972493625823	0.0005308844442309889
2792.2948277224746	0.000630957344480193
2803.3950081056905	0.0007498942093324559
2814.6074398519686	0.0008912509381337458
2825.7565014334427	0.0010592537251772895
2836.9070833849532	0.0012589254117941673
2847.3557564008966	0.0014962356560944345
2856.4931187178627	0.0017782794100389225
2864.0827707132826	0.0021134890398366475
2870.8181915141445	0.002511886431509582
2876.0393118421084	0.0029853826189179603
2879.331497093867	0.0035481338923357567
2880.521735968596	0.004216965034285822
2879.4296160247477	0.0050118723362727255
2876.3834184233588	0.005956621435290103
2871.2922881770646	0.00707945784384138
2864.1217085504004	0.008413951416451957
2855.1      	0.01        
2844.17456477712	0.01188502227437019
2831.8113619583737	0.014125375446227554
2817.9770643665684	0.016788040181225587
2802.606157909435	0.01995262314968883
2785.6692179057222	0.023713737056616554
2768.046089120199	0.02818382931264455
2749.570973572372	0.033496543915782793
2730.3886608794746	0.03981071705534969
2710.562762679241	0.04731512589614813
2690.263793300263	0.056234132519034905
2670.569434619012	0.06683439175686148
2651.1254045110477	0.07943282347242821
2631.786963688005	0.09440608762859228
2612.1640500548615	0.11220184543019629
2593.329478303704	0.1333521432163324
2574.8294411093057	0.1584893192461114
2556.5377376406427	0.18836490894898023
2538.284441559952	0.22387211385683378
2519.776897188408	0.26607250597988086
2502.9699768254886	0.3162277660168379
2486.742691377373	0.3758374042884443
2470.898151068117	0.4466835921509634
2455.3085652104464	0.5308844442309879
2440.731016748948	0.630957344480193
2427.55017246027	0.7498942093324559
2415.0950520079587	0.8912509381337458
2403.1447764893624	1.0592537251772898
2391.3583388683082	1.2589254117941662
2380.4234550623155	1.4962356560944328
2369.705979164386	1.7782794100389228
2359.068701416855	2.1134890398366473
2348.5776988471666	2.511886431509582
2338.3854927792236	2.9853826189179573
2329.4425706388356	3.548133892335753
2321.196775879336	4.216965034285823
2313.6723292393913	5.011872336272725
2306.9399520793922	5.956621435290109
2301.4723647688743	7.079457843841373
2297.3835964737086	8.413951416451948
2291.8      	10.0        
