# T(K)	P(bar)
3353.1      	1e-08       
3353.023060315332	1.1885022274370215e-08
3352.890498336848	1.4125375446227554e-08
3352.699102090956	1.6788040181225588e-08
3352.445655547595	1.9952623149688826e-08
3352.127590946586	2.3713737056616554e-08
3351.8190624194817	2.818382931264461e-08
3351.4092743393094	3.3496543915782795e-08
3350.9061814071397	3.981071705534969e-08
3350.3370737507103	4.731512589614813e-08
3349.710078557537	5.6234132519034905e-08
3348.8986710703916	6.683439175686162e-08
3347.950330282484	7.94328234724282e-08
3346.8516041762623	9.440608762859226e-08
3345.5559087596926	1.1220184543019653e-07
3344.006436394408	1.333521432163324e-07
3342.2212795838514	1.584893192461114e-07
3340.1128602158738	1.883649089489802e-07
3337.623447828268	2.2387211385683422e-07
3334.7515874947526	2.6607250597988136e-07
3331.390225715767	3.162277660168379e-07
3327.5979175381576	3.7583740428844433e-07
3323.263200077322	4.466835921509635e-07
3318.2843219715205	5.308844442309889e-07
3312.7684928239264	6.309573444801942e-07
3306.823294356554	7.498942093324558e-07
3300.573679030557	8.912509381337459e-07
3294.2377400658565	1.0592537251772896e-06
3287.9949798530456	1.2589254117941687e-06
3281.092819152809	1.4962356560944327e-06
3274.29649771753	1.7782794100389227e-06
3267.8292481887056	2.1134890398366474e-06
3261.527418116979	2.511886431509582e-06
3254.625609283569	2.9853826189179636e-06
3245.5160853967363	3.5481338923357534e-06
3233.612458888401	4.216965034285822e-06
3218.519560340502	5.011872336272725e-06
3199.7479124530696	5.95662143529011e-06
3176.53047648232	7.079457843841388e-06
3152.449986132243	8.413951416451948e-06
3132.357779799818	1e-05       
3118.3832590854327	1.188502227437019e-05
3111.4238997698208	1.4125375446227555e-05
3108.3005393768613	1.678804018122562e-05
3104.8847159967922	1.9952623149688786e-05
3101.2687024260686	2.371373705661655e-05
3097.4284760386986	2.818382931264455e-05
3093.2470185828024	3.349654391578279e-05
3089.7819235671864	3.981071705534977e-05
3087.678287360913	4.731512589614803e-05
3086.8      	5.623413251903491e-05
3086.9630108048386	6.683439175686148e-05
3087.8390079532032	7.943282347242821e-05
3089.3318016890394	9.440608762859246e-05
3091.991744930891	0.00011220184543019629
3095.4017857671074	0.0001333521432163324
3099.0102860140028	0.00015848931924611142
3102.626804767508	0.00018836490894898024
3107.6238979751897	0.00022387211385683424
3113.698581369983	0.0002660725059798809
3120.3340889391648	0.0003162277660168379
3126.765855955225	0.00037583740428844437
3132.966835199209	0.0004466835921509635
3141.004370219367	0.0005308844442309889
3148.776693211585	0.000630957344480193
3154.9724672385014	0.0007498942093324559
3159.056995946074	0.0008912509381337458
3162.8349556568182	0.0010592537251772895
3165.195413740028	0.0012589254117941673
3164.825185627013	0.0014962356560944345
3160.6271747089604	0.0017782794100389225
3152.484110588874	0.0021134890398366475
3141.6226051038943	0.002511886431509582
3125.808034831168	0.0029853826189179603
3104.931523582429	0.0035481338923357567
3079.759544895552	0.004216965034285822
3051.2864177880724	0.0050118723362727255
3019.4609255360297	0.005956621435290103
2985.3658823951064	0.00707945784384138
2949.672894862801	0.008413951416451957
2912.7      	0.01        
2874.922614827928	0.01188502227437019
2836.936345022457	0.014125375446227554
2799.3280893708566	0.016788040181225587
2762.6628685747564	0.01995262314968883
2727.9143109145575	0.023713737056616554
2696.103897996877	0.02818382931264455
2665.1966491622325	0.033496543915782793
2635.1383680600293	0.03981071705534969
2605.7683187819566	0.04731512589614813
2577.553535089169	0.056234132519034905
2549.8386883754442	0.06683439175686148
2521.889788483218	0.07943282347242821
2493.4304455320075	0.09440608762859228
2463.967520372101	0.11220184543019629
2434.71218146354	0.1333521432163324
2404.9458550845275	0.1584893192461114
2374.6483727703835	0.18836490894898023
2344.014171520611	0.22387211385683378
2313.7000902223917	0.26607250597988086
2287.151299881646	0.3162277660168379
2263.818141971207	0.3758374042884443
2244.3680395939746	0.4466835921509634
2229.4549151544325	0.5308844442309879
2220.629588518282	0.630957344480193
2216.9443832204165	0.7498942093324559
2216.461079709636	0.8912509381337458
2218.633444891446	1.0592537251772898
2222.6911331030574	1.2589254117941662
2225.948332534629	1.4962356560944328
2229.2120355846405	1.7782794100389228
2232.7518972330145	2.1134890398366473
2236.7605784792468	2.511886431509582
2241.4152867622442	2.9853826189179573
2246.4826753261796	3.548133892335753
2251.7913115279785	4.216965034285823
2257.210133468062	5.011872336272725
2262.5977256075207	5.956621435290109
2267.6691109390154	7.079457843841373
2272.5437925913016	8.413951416451948
2279.2      	10.0        
