# T(K)	P(bar)
3353.9      	1e-08       
3353.823060315332	1.1885022274370215e-08
3353.690498336848	1.4125375446227554e-08
3353.499102090956	1.6788040181225588e-08
3353.245655547595	1.9952623149688826e-08
3352.9275909465864	2.3713737056616554e-08
3352.619062419482	2.818382931264461e-08
3352.2092743393096	3.3496543915782795e-08
3351.733869777548	3.981071705534969e-08
3351.229207969549	4.731512589614813e-08
3350.5238383772294	5.6234132519034905e-08
3349.762428245811	6.683439175686162e-08
3348.8503302824843	7.94328234724282e-08
3347.7516041762624	9.440608762859226e-08
3346.4559087596926	1.1220184543019653e-07
3344.906436394408	1.333521432163324e-07
3343.1212795838514	1.584893192461114e-07
3341.049098208678	1.883649089489802e-07
3338.623447828268	2.2387211385683422e-07
3335.7515874947526	2.6607250597988136e-07
3332.536124546869	3.162277660168379e-07
3328.7468963134156	3.7583740428844433e-07
3324.4234230256066	4.466835921509635e-07
3319.594545943356	5.308844442309889e-07
3314.157514355013	6.309573444801942e-07
3308.2896623776237	7.498942093324558e-07
3302.1184484252412	8.912509381337459e-07
3295.8377400658565	1.0592537251772896e-06
3289.6040814293815	1.2589254117941687e-06
3282.857025463982	1.4962356560944327e-06
3276.1563080885926	1.7782794100389227e-06
3269.76782938106	2.1134890398366474e-06
3263.582275624526	2.511886431509582e-06
3256.9212275643745	2.9853826189179636e-06
3247.967075558136	3.5481338923357534e-06
3236.3264479624863	4.216965034285822e-06
3221.549568191564	5.011872336272725e-06
3203.1226992287748	5.95662143529011e-06
3180.380705632853	7.079457843841388e-06
3156.2810370434922	8.413951416451948e-06
3135.779981801638	1e-05       
3121.170798345691	1.188502227437019e-05
3113.589387241049	1.4125375446227555e-05
3110.075606798969	1.678804018122562e-05
3106.4595922633166	1.9952623149688786e-05
3102.563245237352	2.371373705661655e-05
3098.3872635786483	2.818382931264455e-05
3094.0434864883223	3.349654391578279e-05
3090.347385138332	3.981071705534977e-05
3087.9539448330956	4.731512589614803e-05
3086.8300136611174	5.623413251903491e-05
3086.8185533126098	6.683439175686148e-05
3087.455642147784	7.943282347242821e-05
3088.717031435683	9.440608762859246e-05
3091.092531127949	0.00011220184543019629
3094.186071476698	0.0001333521432163324
3097.474608969307	0.00015848931924611142
3100.7766478312033	0.00018836490894898024
3105.4636686825315	0.00022387211385683424
3111.2680432039833	0.0002660725059798809
3117.688236715686	0.0003162277660168379
3123.959209556344	0.00037583740428844437
3130.0051643192287	0.0004466835921509635
3137.945772289463	0.0005308844442309889
3145.751438934211	0.000630957344480193
3152.0895744392565	0.0007498942093324559
3156.254191945017	0.0008912509381337458
3160.1833211938315	0.0010592537251772895
3162.7519014171753	0.0012589254117941673
3162.5564314082176	0.0014962356560944345
3158.4385613622712	0.0017782794100389225
3150.374556117137	0.0021134890398366475
3139.7255652729923	0.002511886431509582
3124.284183341595	0.0029853826189179603
3103.9853454023505	0.0035481338923357567
3079.6378089269556	0.004216965034285822
3052.2568017633243	0.0050118723362727255
3021.763066152976	0.005956621435290103
2989.083217489237	0.00707945784384138
2954.881324509601	0.008413951416451957
2919.6      	0.01        
2883.8999863139684	0.01188502227437019
2848.0693683065865	0.014125375446227554
2812.804333733994	0.016788040181225587
2778.751968646401	0.01995262314968883
2746.86599239528	0.023713737056616554
2718.04303940693	0.02818382931264455
2690.3801830638486	0.033496543915782793
2663.8950982100523	0.03981071705534969
2638.5402656516308	0.04731512589614813
2615.027945907641	0.056234132519034905
2592.792962181026	0.06683439175686148
2571.0415005040904	0.07943282347242821
2549.782117342235	0.09440608762859228
2529.0530674740185	0.11220184543019629
2509.832541383698	0.1333521432163324
2491.057476527722	0.1584893192461114
2472.6014996478384	0.18836490894898023
2454.428579602885	0.22387211385683378
2436.6390003147194	0.26607250597988086
2420.01587565659	0.3162277660168379
2403.4855428041787	0.3758374042884443
2387.0572592749786	0.4466835921509634
2370.7552056329155	0.5308844442309879
2354.995693782647	0.630957344480193
2340.0573399545947	0.7498942093324559
2325.631047746162	0.8912509381337458
2311.9061837740637	1.0592537251772898
2298.8535534007465	1.2589254117941662
2284.4288130609266	1.4962356560944328
2269.85565024018	1.7782794100389228
2255.548291337968	2.1134890398366473
2241.9656954433926	2.511886431509582
2229.526388825037	2.9853826189179573
2218.881678863442	3.548133892335753
2208.7058468977793	4.216965034285823
2198.8672625053605	5.011872336272725
2189.2167289485164	5.956621435290109
2179.7871218477685	7.079457843841373
2167.285502178613	8.413951416451948
2146.5      	10.0        
