# T(K)	P(bar)
3304.8      	1e-08       
3251.096100101616	1.1885022274370215e-08
3211.5666440854448	1.4125375446227554e-08
3185.6080032757836	1.6788040181225588e-08
3171.1462858981668	1.9952623149688826e-08
3162.6380578211847	2.3713737056616554e-08
3155.7193732285978	2.818382931264461e-08
3149.0782950271123	3.3496543915782795e-08
3142.6956838489436	3.981071705534969e-08
3136.6808584433584	4.731512589614813e-08
3131.508148099681	5.6234132519034905e-08
3127.157112527378	6.683439175686162e-08
3123.4241439895636	7.94328234724282e-08
3120.324983091509	9.440608762859226e-08
3117.847090511631	1.1220184543019653e-07
3115.9877236732896	1.333521432163324e-07
3114.3510663198763	1.584893192461114e-07
3112.8114781367203	1.883649089489802e-07
3111.2957085760304	2.2387211385683422e-07
3109.7800045111194	2.6607250597988136e-07
3108.0951128578836	3.162277660168379e-07
3106.22446938145	3.7583740428844433e-07
3104.1267672498743	4.466835921509635e-07
3101.783056873102	5.308844442309889e-07
3099.34033253631	6.309573444801942e-07
3096.8762233257657	7.498942093324558e-07
3094.4121487647813	8.912509381337459e-07
3092.071184957302	1.0592537251772896e-06
3089.9998826603032	1.2589254117941687e-06
3088.293730577099	1.4962356560944327e-06
3086.883223691931	1.7782794100389227e-06
3085.6598633070375	2.1134890398366474e-06
3084.6171416415095	2.511886431509582e-06
3083.8146057306476	2.9853826189179636e-06
3083.1205442737028	3.5481338923357534e-06
3082.632513657393	4.216965034285822e-06
3082.465003925531	5.011872336272725e-06
3082.7620380140274	5.95662143529011e-06
3083.7921631594877	7.079457843841388e-06
3085.416879952518	8.413951416451948e-06
3087.4695177434032	1e-05       
3089.8498429589686	1.188502227437019e-05
3092.4139776783886	1.4125375446227555e-05
3094.8345819829324	1.678804018122562e-05
3096.8640466684487	1.9952623149688786e-05
3098.4163715661484	2.371373705661655e-05
3099.320606230025	2.818382931264455e-05
3099.384694257254	3.349654391578279e-05
3098.383666808298	3.981071705534977e-05
3096.473516673324	4.731512589614803e-05
3093.625307375145	5.623413251903491e-05
3089.796030991349	6.683439175686148e-05
3084.938228623147	7.943282347242821e-05
3079.302333750554	9.440608762859246e-05
3072.916903236747	0.00011220184543019629
3065.736071312363	0.0001333521432163324
3057.7099620096883	0.00015848931924611142
3048.9831450175348	0.00018836490894898024
3039.5328919275953	0.00022387211385683424
3029.108218920028	0.0002660725059798809
3017.5547482334096	0.0003162277660168379
3004.6951777018635	0.00037583740428844437
2990.5879499217995	0.0004466835921509635
2974.8530326500204	0.0005308844442309889
2957.342631868874	0.000630957344480193
2937.9665917999428	0.0007498942093324559
2916.7430602802024	0.0008912509381337458
2893.670986679543	0.0010592537251772895
2867.7474294509598	0.0012589254117941673
2839.664044079246	0.0014962356560944345
2810.4577380745714	0.0017782794100389225
2782.3918374665072	0.0021134890398366475
2754.91539326703	0.002511886431509582
2728.1197824230194	0.0029853826189179603
2702.559963220358	0.0035481338923357567
2678.4955873562285	0.004216965034285822
2656.1071285073335	0.0050118723362727255
2633.826980163129	0.005956621435290103
2611.3023423932596	0.00707945784384138
2588.7709655608005	0.008413951416451957
2566.7      	0.01        
2547.003440724948	0.01188502227437019
2528.7263120638095	0.014125375446227554
2512.076166457524	0.016788040181225587
2497.3484969217125	0.01995262314968883
2485.3415582336343	0.023713737056616554
2474.8183566575085	0.02818382931264455
2464.5493982951502	0.033496543915782793
2454.4112653285115	0.03981071705534969
2444.316777354846	0.04731512589614813
2434.519977461517	0.056234132519034905
2424.1927813184457	0.06683439175686148
2413.2536331073247	0.07943282347242821
2401.8644375863637	0.09440608762859228
2390.2683260585413	0.11220184543019629
2378.6125050158166	0.1333521432163324
2366.7871278664443	0.1584893192461114
2355.0817290361956	0.18836490894898023
2343.75394469411	0.22387211385683378
2333.06424234158	0.26607250597988086
2323.6001713028095	0.3162277660168379
2315.1468563010576	0.3758374042884443
2307.8513050169036	0.4466835921509634
2301.786561689875	0.5308844442309879
2297.058708134794	0.630957344480193
2293.6789111361377	0.7498942093324559
2291.1359957382033	0.8912509381337458
2289.3372220907513	1.0592537251772898
2288.1635936946554	1.2589254117941662
2287.543174755309	1.4962356560944328
2287.1607585157485	1.7782794100389228
2286.9614188076457	2.1134890398366473
2286.881714164151	2.511886431509582
2286.801460573065	2.9853826189179573
2286.8      	3.548133892335753
2286.8534972685216	4.216965034285823
2286.9      	5.011872336272725
2286.9      	5.956621435290109
2286.9      	7.079457843841373
2286.968949088751	8.413951416451948
2287.0      	10.0        
