# T(K)	P(bar)
3364.3      	1e-08       
3341.064215230212	1.1885022274370215e-08
3326.4348835793508	1.4125375446227554e-08
3317.4093890921567	1.6788040181225588e-08
3311.0810415174064	1.9952623149688826e-08
3305.1173302484935	2.3713737056616554e-08
3298.2789044383385	2.818382931264461e-08
3290.1731210004405	3.3496543915782795e-08
3280.717446735651	3.981071705534969e-08
3269.880803920009	4.731512589614813e-08
3257.7327720522812	5.6234132519034905e-08
3244.8887945296206	6.683439175686162e-08
3231.569729100367	7.94328234724282e-08
3218.259591240593	9.440608762859226e-08
3205.602384127925	1.1220184543019653e-07
3195.1434456622533	1.333521432163324e-07
3186.1957581273314	1.584893192461114e-07
3178.5922465972517	1.883649089489802e-07
3172.2269723470554	2.2387211385683422e-07
3166.88212117079	2.6607250597988136e-07
3162.077136235854	3.162277660168379e-07
3157.287705290738	3.7583740428844433e-07
3152.43308860318	4.466835921509635e-07
3147.476337718039	5.308844442309889e-07
3142.6696866037073	6.309573444801942e-07
3138.1506547779504	7.498942093324558e-07
3133.9167608710914	8.912509381337459e-07
3130.0842218541034	1.0592537251772896e-06
3126.740722414119	1.2589254117941687e-06
3124.0263895544754	1.4962356560944327e-06
3121.8449303523653	1.7782794100389227e-06
3120.028376152911	2.1134890398366474e-06
3118.4891407905657	2.511886431509582e-06
3117.1248297421007	2.9853826189179636e-06
3115.816583628105	3.5481338923357534e-06
3114.330054629572	4.216965034285822e-06
3112.6199528936254	5.011872336272725e-06
3110.6634595093274	5.95662143529011e-06
3108.523968822603	7.079457843841388e-06
3106.5073236924786	8.413951416451948e-06
3104.802729754322	1e-05       
3103.6140968527257	1.188502227437019e-05
3103.1207075172633	1.4125375446227555e-05
3103.3549595467352	1.678804018122562e-05
3104.2133042675932	1.9952623149688786e-05
3105.7272859435802	2.371373705661655e-05
3107.880005590826	2.818382931264455e-05
3110.549449322718	3.349654391578279e-05
3113.7835380039596	3.981071705534977e-05
3118.0090522853066	4.731512589614803e-05
3123.2594808775325	5.623413251903491e-05
3129.415171454252	6.683439175686148e-05
3135.945332014786	7.943282347242821e-05
3142.628337347321	9.440608762859246e-05
3149.8811312706075	0.00011220184543019629
3157.043214380794	0.0001333521432163324
3163.2994786257427	0.00015848931924611142
3167.702197108271	0.00018836490894898024
3170.937235603418	0.00022387211385683424
3172.691614497998	0.0002660725059798809
3172.2141771951988	0.0003162277660168379
3168.58097285373	0.00037583740428844437
3161.1397977609495	0.0004466835921509635
3151.037691883507	0.0005308844442309889
3137.1648348177546	0.000630957344480193
3118.807340584089	0.0007498942093324559
3095.901944302407	0.0008912509381337458
3069.358579328244	0.0010592537251772895
3039.1176759080217	0.0012589254117941673
3005.226940646047	0.0014962356560944345
2967.963606611022	0.0017782794100389225
2928.8294635096368	0.0021134890398366475
2888.379010238741	0.002511886431509582
2847.551228103247	0.0029853826189179603
2807.7957566456744	0.0035481338923357567
2770.4800304976825	0.004216965034285822
2738.106475019315	0.0050118723362727255
2709.0734975582436	0.005956621435290103
2682.327080003694	0.00707945784384138
2657.4430868832005	0.008413951416451957
2633.6      	0.01        
2611.2874914462304	0.01188502227437019
2588.941262169246	0.014125375446227554
2566.38106600446	0.016788040181225587
2543.446441087538	0.01995262314968883
2520.307241364156	0.023713737056616554
2497.651087831907	0.02818382931264455
2474.6059883493745	0.033496543915782793
2451.093488877408	0.03981071705534969
2426.938010496535	0.04731512589614813
2402.4068235636387	0.056234132519034905
2377.5701895151064	0.06683439175686148
2352.2851039199895	0.07943282347242821
2326.732083525252	0.09440608762859228
2301.0124904392283	0.11220184543019629
2276.8517488076204	0.1333521432163324
2254.4646154399443	0.1584893192461114
2234.156547676622	0.18836490894898023
2216.14497839358	0.22387211385683378
2200.4295204573978	0.26607250597988086
2187.8551440963306	0.3162277660168379
2177.2754105814756	0.3758374042884443
2168.740524697908	0.4466835921509634
2162.237681549052	0.5308844442309879
2157.9038157902282	0.630957344480193
2155.2425913468355	0.7498942093324559
2153.573228474417	0.8912509381337458
2152.679074030251	1.0592537251772898
2152.3      	1.2589254117941662
2152.3      	1.4962356560944328
2152.419620742126	1.7782794100389228
2152.5385811923543	2.1134890398366473
2152.618285835849	2.511886431509582
2152.698539426935	2.9853826189179573
2152.7      	3.548133892335753
2152.7534972685216	4.216965034285823
2152.832501962766	5.011872336272725
2152.9124644626177	5.956621435290109
2152.991704858422	7.079457843841373
2153.1378981775015	8.413951416451948
2153.3      	10.0        
