# T(K)	P(bar)
3363.7      	1e-08       
3340.310335860876	1.1885022274370215e-08
3325.470631084623	1.4125375446227554e-08
3316.2084911831125	1.6788040181225588e-08
3309.640283178103	1.9952623149688826e-08
3303.4380234584337	2.3713737056616554e-08
3296.36820125295	2.818382931264461e-08
3288.027758170095	3.3496543915782795e-08
3278.2790048836077	3.981071705534969e-08
3267.041475014203	4.731512589614813e-08
3254.501571150742	5.6234132519034905e-08
3241.142494301688	6.683439175686162e-08
3227.273753098628	7.94328234724282e-08
3213.3853933287246	9.440608762859226e-08
3200.086952193817	1.1220184543019653e-07
3189.0856984002958	1.333521432163324e-07
3179.7085247073005	1.584893192461114e-07
3171.7472946260345	1.883649089489802e-07
3165.078926332744	2.2387211385683422e-07
3159.494753462019	2.6607250597988136e-07
3154.5312374047526	3.162277660168379e-07
3149.48362039177	3.7583740428844433e-07
3144.312642706611	4.466835921509635e-07
3139.0354418306974	5.308844442309889e-07
3133.91360047936	6.309573444801942e-07
3129.085182693671	7.498942093324558e-07
3124.5376832923534	8.912509381337459e-07
3120.339110690404	1.0592537251772896e-06
3116.5134176851107	1.2589254117941687e-06
3113.333770620957	1.4962356560944327e-06
3110.566447383862	1.7782794100389227e-06
3108.042564229366	2.1134890398366474e-06
3105.6879965962257	2.511886431509582e-06
3103.440896045813	2.9853826189179636e-06
3101.1351475790093	3.5481338923357534e-06
3098.5275956017504	4.216965034285822e-06
3095.534917563844	5.011872336272725e-06
3092.126634719594	5.95662143529011e-06
3088.4815765125827	7.079457843841388e-06
3084.72149465121	8.413951416451948e-06
3081.0748862602363	1e-05       
3077.6908114862244	1.188502227437019e-05
3074.692924827366	1.4125375446227555e-05
3072.3504045326463	1.678804018122562e-05
3070.3359533315515	1.9952623149688786e-05
3068.5370798073923	2.371373705661655e-05
3066.9496940895747	2.818382931264455e-05
3065.584694257254	3.349654391578279e-05
3064.5836668082984	3.981071705534977e-05
3064.243914368046	4.731512589614803e-05
3064.6199180332947	5.623413251903491e-05
3065.7260216096774	6.683439175686148e-05
3067.4780159064057	7.943282347242821e-05
3069.676112449107	9.440608762859246e-05
3072.243120775742	0.00011220184543019629
3074.8389286054694	0.0001333521432163324
3077.0694659623055	0.00015848931924611142
3078.5632454474494	0.00018836490894898024
3079.645745201139	0.00022387211385683424
3080.3610763319984	0.0002660725059798809
3080.539517217823	0.0003162277660168379
3079.946828808955	0.00037583740428844437
3078.7066329601585	0.0004466835921509635
3077.8726186308622	0.0005308844442309889
3076.715169912432	0.000630957344480193
3074.7499263713125	0.0007498942093324559
3071.7065520401798	0.0008912509381337458
3068.484323722727	0.0010592537251772895
3064.218083898013	0.0012589254117941673
3057.831718286329	0.0014962356560944345
3048.3895221235402	0.0017782794100389225
3035.819161006126	0.0021134890398366475
3020.4987085013317	0.002511886431509582
3001.5193417825067	0.0029853826189179603
2978.852319580515	0.0035481338923357567
2952.943399214913	0.004216965034285822
2925.6404006186995	0.0050118723362727255
2895.4079862900758	0.005956621435290103
2861.568103149998	0.00707945784384138
2824.233831692401	0.008413951416451957
2784.2      	0.01        
2743.114208387197	0.01188502227437019
2700.084783485828	0.014125375446227554
2654.856744554655	0.016788040181225587
2607.0048876152036	0.01995262314968883
2556.114551453814	0.023713737056616554
2502.8168609898203	0.02818382931264455
2447.212920717117	0.033496543915782793
2391.714922048663	0.03981071705534969
2339.774975200545	0.04731512589614813
2300.6661500263763	0.056234132519034905
2276.0755052335394	0.06683439175686148
2260.714714254654	0.07943282347242821
2252.5419114847223	0.09440608762859228
2249.1219651616857	0.11220184543019629
2249.893873840012	0.1333521432163324
2252.794111778139	0.1584893192461114
2257.2641835106856	0.18836490894898023
2262.881227048292	0.22387211385683378
2269.263138900549	0.26607250597988086
2276.092497984016	0.3162277660168379
2283.1429314515226	0.3758374042884443
2290.2196982503765	0.4466835921509634
2297.1588136341757	0.5308844442309879
2303.777808611288	0.630957344480193
2309.6776015802366	0.7498942093324559
2315.1100106544914	0.8912509381337458
2319.9818152793455	1.0592537251772898
2324.177480738553	1.2589254117941662
2327.2020230678704	1.4962356560944328
2329.5148800186976	1.7782794100389228
2331.333042654735	2.1134890398366473
2332.737715866038	2.511886431509582
2333.7810125501583	2.9853826189179573
2334.479455726297	3.548133892335753
2334.967486342607	4.216965034285823
2335.3300078510624	5.011872336272725
2335.6124644626175	5.956621435290109
2335.691704858422	7.079457843841373
2335.768949088751	8.413951416451948
2335.8      	10.0        
