# T(K)	P(bar)
3361.4      	1e-08       
3337.0101199601895	1.1885022274370215e-08
3321.6516277583187	1.4125375446227554e-08
3311.9730627286763	1.6788040181225588e-08
3304.8180081601918	1.9952623149688826e-08
3297.900103088253	2.3713737056616554e-08
3289.8551541162656	2.818382931264461e-08
3280.3524897415864	3.3496543915782795e-08
3269.225237475435	3.981071705534969e-08
3256.3762936098174	4.731512589614813e-08
3242.1905273642765	5.6234132519034905e-08
3227.1398364424717	6.683439175686162e-08
3211.6703896653353	7.94328234724282e-08
3196.29344802702	9.440608762859226e-08
3181.556088325602	1.1220184543019653e-07
3169.4702038763817	1.333521432163324e-07
3159.406397919257	1.584893192461114e-07
3151.0023426548178	1.883649089489802e-07
3143.9828343041218	2.2387211385683422e-07
3137.920018044478	2.6607250597988136e-07
3132.3476420803468	3.162277660168379e-07
3126.6244293690916	3.7583740428844433e-07
3120.681416491046	4.466835921509635e-07
3114.522978140508	5.308844442309889e-07
3108.5343636374055	6.309573444801942e-07
3102.855134461903	7.498942093324558e-07
3097.4004505561397	8.912509381337459e-07
3092.2005179751054	1.0592537251772896e-06
3087.231503498086	1.2589254117941687e-06
3082.6559138204016	1.4962356560944327e-06
3078.190808849416	1.7782794100389227e-06
3073.7008720357953	2.1134890398366474e-06
3069.0662781773567	2.511886431509582e-06
3064.0905555300146	2.9853826189179636e-06
3058.790839431721	3.5481338923357534e-06
3052.873715786807	4.216965034285822e-06
3046.2423213883285	5.011872336272725e-06
3038.8410892756315	5.95662143529011e-06
3030.837809299366	7.079457843841388e-06
3022.5534984149112	8.413951416451948e-06
3013.8163785259326	1e-05       
3004.666204088803	1.188502227437019e-05
2995.1371867806906	1.4125375446227555e-05
2985.376685552692	1.678804018122562e-05
2975.1792717238536	1.9952623149688786e-05
2964.159558651746	2.371373705661655e-05
2952.161790735945	2.818382931264455e-05
2939.092783790515	3.349654391578279e-05
2925.5404121738834	3.981071705534977e-05
2911.1559011925824	4.731512589614803e-05
2895.901366111756	5.623413251903491e-05
2879.817613872142	6.683439175686148e-05
2863.2533041576166	7.943282347242821e-05
2846.564951673923	9.440608762859246e-05
2829.393437387456	0.00011220184543019629
2811.3571425754258	0.0001333521432163324
2791.9007187442003	0.00015848931924611142
2770.751946033485	0.00018836490894898024
2748.2080896664565	0.00022387211385683424
2723.888903516065	0.0002660725059798809
2698.2948659081217	0.0003162277660168379
2672.3332529796603	0.00037583740428844437
2647.4518237631737	0.0004466835921509635
2623.017445869887	0.0005308844442309889
2598.1033115186015	0.000630957344480193
2572.662553364461	0.0007498942093324559
2547.674848329899	0.0008912509381337458
2526.919018040258	0.0010592537251772895
2508.9415374816194	0.0012589254117941673
2494.488082193814	0.0014962356560944345
2483.986587855315	0.0017782794100389225
2476.9503479845607	0.0021134890398366475
2471.9054898386403	0.002511886431509582
2468.105034682222	0.0029853826189179603
2465.3654454501957	0.0035481338923357567
2463.4105553926815	0.004216965034285822
2462.162418313998	0.0050118723362727255
2461.165239588702	0.005956621435290103
2460.5007402516303	0.00707945784384138
2460.2388980615997	0.008413951416451957
2460.4      	0.01        
2461.0924571620135	0.01188502227437019
2462.4497674630975	0.014125375446227554
2464.6444075448776	0.016788040181225587
2467.7928917681634	0.01995262314968883
2471.848215431024	0.023713737056616554
2476.9759388688108	0.02818382931264455
2483.506247740706	0.033496543915782793
2491.4287858561765	0.03981071705534969
2500.6146857697986	0.04731512589614813
2510.7249832597145	0.056234132519034905
2521.9360619620006	0.06683439175686148
2534.065165754043	0.07943282347242821
2546.783958237374	0.09440608762859228
2559.651442586976	0.11220184543019629
2572.0019814401944	0.1333521432163324
2584.012872133556	0.1584893192461114
2595.3196530429586	0.18836490894898023
2605.5456718532987	0.22387211385683378
2614.241026751998	0.26607250597988086
2620.8277509062623	0.3162277660168379
2626.059231035036	0.3758374042884443
2629.923790120837	0.4466835921509634
2632.484031493038	0.5308844442309879
2633.9023875595617	0.630957344480193
2634.6309441685585	0.7498942093324559
2635.0343081840533	0.8912509381337458
2635.2      	1.0592537251772898
2635.204550788168	1.2589254117941662
2635.2821031555864	1.4962356560944328
2635.240189628937	1.7782794100389228
2635.2      	2.1134890398366473
2635.2      	2.511886431509582
2635.2      	2.9853826189179573
2635.1245049193003	3.548133892335753
2635.0465027314785	4.216965034285823
2634.9674980372342	5.011872336272725
2634.8875355373825	5.956621435290109
2634.808295141578	7.079457843841373
2634.6621018224982	8.413951416451948
2634.5      	10.0        
