# T(K)	P(bar)
3363.7      	1e-08       
3340.2333961762074	1.1885022274370215e-08
3325.370631084623	1.4125375446227554e-08
3316.0748585467645	1.6788040181225588e-08
3309.440283178103	1.9952623149688826e-08
3303.2380234584334	2.3713737056616554e-08
3296.16820125295	2.818382931264461e-08
3287.827758170095	3.3496543915782795e-08
3278.0513165131993	3.981071705534969e-08
3266.733609233042	4.731512589614813e-08
3254.115330970434	5.6234132519034905e-08
3240.742494301688	6.683439175686162e-08
3226.831470812665	7.94328234724282e-08
3212.8853933287246	9.440608762859226e-08
3199.5847476318017	1.1220184543019653e-07
3188.506020220016	1.333521432163324e-07
3179.1085247073006	1.584893192461114e-07
3171.183532618839	1.883649089489802e-07
3164.578926332744	2.2387211385683422e-07
3158.994753462019	2.6607250597988136e-07
3153.9582879892014	3.162277660168379e-07
3148.9346416165117	3.7583740428844433e-07
3143.812642706611	4.466835921509635e-07
3138.5354418306974	5.308844442309889e-07
3133.41360047936	6.309573444801942e-07
3128.585182693671	7.498942093324558e-07
3123.992913897669	8.912509381337459e-07
3119.7391106904042	1.0592537251772896e-06
3115.9134176851107	1.2589254117941687e-06
3112.733770620957	1.4962356560944327e-06
3109.966447383862	1.7782794100389227e-06
3107.442564229366	2.1134890398366474e-06
3105.087996596226	2.511886431509582e-06
3102.840896045813	2.9853826189179636e-06
3100.5351475790094	3.5481338923357534e-06
3097.9275956017505	4.216965034285822e-06
3094.9999214893755	5.011872336272725e-06
3091.739099182212	5.95662143529011e-06
3088.173281371005	7.079457843841388e-06
3084.6283419174624	8.413951416451948e-06
3081.2637852593266	1e-05       
3078.2235994485636	1.188502227437019e-05
3075.620534850384	1.4125375446227555e-05
3073.59035059496	1.678804018122562e-05
3072.011324531979	1.9952623149688786e-05
3070.8069027470815	2.371373705661655e-05
3069.8733314697247	2.818382931264455e-05
3068.9894037165604	3.349654391578279e-05
3068.296384713437	3.981071705534977e-05
3068.1560856319543	4.731512589614803e-05
3068.5849248638533	5.623413251903491e-05
3069.4481916407626	6.683439175686148e-05
3070.24455268473	7.943282347242821e-05
3070.8727206756157	9.440608762859246e-05
3071.9466586625035	0.00011220184543019629
3072.7421428547955	0.0001333521432163324
3072.3324221647804	0.00015848931924611142
3069.973822977712	0.00018836490894898024
3066.6073631344307	0.00022387211385683424
3061.6930331280155	0.0002660725059798809
3054.3508271386386	0.0003162277660168379
3043.478561704662	0.00037583740428844437
3028.9837727218487	0.0004466835921509635
3012.1568678416493	0.0005308844442309889
2992.1113616645484	0.000630957344480193
2968.5033021486074	0.0007498942093324559
2941.8337323521037	0.0008912509381337458
2914.1200205691534	0.0010592537251772895
2884.665252207099	0.0012589254117941673
2854.20162001757	0.0014962356560944345
2823.4730717417947	0.0017782794100389225
2793.430699259923	0.0021134890398366475
2764.4299788627427	0.002511886431509582
2736.8356834160677	0.0029853826189179603
2711.161491948327	0.0035481338923357567
2687.501802827419	0.004216965034285822
2666.595506759461	0.0050118723362727255
2647.259871636946	0.005956621435290103
2628.7934593736945	0.00707945784384138
2610.9601112856003	0.008413951416451957
2593.4      	0.01        
2576.5502090576706	0.01188502227437019
2559.509567884842	0.014125375446227554
2542.2008200034306	0.016788040181225587
2524.583882891524	0.01995262314968883
2506.931297535542	0.023713737056616554
2489.597261095847	0.02818382931264455
2472.0946962776625	0.033496543915782793
2454.425493398873	0.03981071705534969
2436.5144676764007	0.04731512589614813
2418.723479070115	0.056234132519034905
2401.318392706161	0.06683439175686148
2383.8978970881913	0.07943282347242821
2366.4095574236107	0.09440608762859228
2348.7299455399193	0.11220184543019629
2332.2110998237404	0.1333521432163324
2316.3356945611113	0.1584893192461114
2301.059733338419	0.18836490894898023
2286.445361846171	0.22387211385683378
2272.7242513638193	0.26607250597988086
2261.3493853295918	0.3162277660168379
2251.5835803794116	0.3758374042884443
2243.3200788013387	0.4466835921509634
2236.404769915191	0.5308844442309879
2231.0465358861	0.630957344480193
2227.1807030097184	0.7498942093324559
2224.212148764781	0.8912509381337458
2222.0404813149516	1.0592537251772898
2220.5544921183196	1.2589254117941662
2219.778968444136	1.4962356560944328
2219.3009481446857	1.7782794100389228
2219.022837615291	2.1134890398366473
2218.9      	2.511886431509582
2218.9      	2.9853826189179573
2218.9      	3.548133892335753
2218.9534972685215	4.216965034285823
2219.0      	5.011872336272725
2219.0124644626176	5.956621435290109
2219.091704858422	7.079457843841373
2219.237898177502	8.413951416451948
2219.4      	10.0        
