# T(K)	P(bar)
2815.8      	1e-08       
2812.4915935592685	1.1885022274370215e-08
2808.817209252773	1.4125375446227554e-08
2804.7502050008575	1.6788040181225588e-08
2800.4206943449376	1.9952623149688826e-08
2796.4448868323293	2.3713737056616554e-08
2792.307342663003	2.818382931264461e-08
2787.647380562748	3.3496543915782795e-08
2782.406437330578	3.981071705534969e-08
2776.5707375071015	4.731512589614813e-08
2770.300785575371	5.6234132519034905e-08
2763.7168829139723	6.683439175686162e-08
2756.794594263351	7.94328234724282e-08
2749.59672401351	9.440608762859226e-08
2742.1993848566012	1.1220184543019653e-07
2735.149285594556	1.333521432163324e-07
2728.187245123449	1.584893192461114e-07
2721.2110566332303	1.883649089489802e-07
2714.2066655849817	2.2387211385683422e-07
2707.266336445653	2.6607250597988136e-07
2700.918147924839	3.162277660168379e-07
2694.7713656948654	3.7583740428844433e-07
2688.8319738617574	4.466835921509635e-07
2683.125217858862	5.308844442309889e-07
2677.9245789482734	6.309573444801942e-07
2673.085182693671	7.498942093324558e-07
2668.3586057136154	8.912509381337459e-07
2663.6005179751055	1.0592537251772896e-06
2658.5859956164063	1.2589254117941687e-06
2653.234882264537	1.4962356560944327e-06
2647.454411799222	1.7782794100389227e-06
2641.197761034579	2.1134890398366474e-06
2634.4542747735827	2.511886431509582e-06
2627.2314515758276	2.9853826189179636e-06
2619.62598701073	3.5481338923357534e-06
2611.315300462643	4.216965034285822e-06
2602.2347605425944	5.011872336272725e-06
2592.3297620092535	5.95662143529011e-06
2581.7115489714365	7.079457843841388e-06
2570.326585776128	8.413951416451948e-06
2557.719017288444	1e-05       
2543.7540574311233	1.188502227437019e-05
2528.322863768543	1.4125375446227555e-05
2511.612885666209	1.678804018122562e-05
2493.3851519828936	1.9952623149688786e-05
2473.0998546206133	2.371373705661655e-05
2450.5326749222654	2.818382931264455e-05
2425.6138243368687	3.349654391578279e-05
2400.357131778601	3.981071705534977e-05
2374.2991420313847	4.731512589614803e-05
2347.3573702038966	5.623413251903491e-05
2320.0430483315263	6.683439175686148e-05
2294.4798588201675	7.943282347242821e-05
2275.160429309268	9.440608762859246e-05
2259.0361650646687	0.00011220184543019629
2245.9235712712793	0.0001333521432163324
2235.606185755516	0.00015848931924611142
2228.6090081672123	0.00018836490894898024
2225.2229936892404	0.00022387211385683424
2224.609178107997	0.0002660725059798809
2226.4775272517595	0.0003162277660168379
2230.345916758583	0.00037583740428844437
2236.0818225592684	0.0004466835921509635
2243.8871743595587	0.0005308844442309889
2253.2958448319728	0.000630957344480193
2264.014758510975	0.0007498942093324559
2275.787811844567	0.0008912509381337458
2288.5885223405858	0.0010592537251772895
2303.593324605038	0.0012589254117941673
2320.3678092085465	0.0014962356560944345
2338.1709037685014	0.0017782794100389225
2355.326679633149	0.0021134890398366475
2371.810172005962	0.002511886431509582
2387.9969998510546	0.0029853826189179603
2403.798761124488	0.0035481338923357567
2419.189480968458	0.004216965034285822
2432.9969974014007	0.0050118723362727255
2445.329425278321	0.005956621435290103
2456.4807534576094	0.00707945784384138
2466.4588424188	0.008413951416451957
2475.4      	0.01        
2483.2478478361536	0.01188502227437019
2490.9655814944545	0.014125375446227554
2498.695998362108	0.016788040181225587
2506.62654187563	0.01995262314968883
2514.9757376521084	0.023713737056616554
2523.636486649641	0.02818382931264455
2532.6691503834686	0.033496543915782793
2541.9672277082195	0.03981071705534969
2551.4674910828317	0.04731512589614813
2561.1075421778673	0.056234132519034905
2570.7696469273656	0.06683439175686148
2580.543003459383	0.07943282347242821
2590.2911939390465	0.09440608762859228
2599.863581940232	0.11220184543019629
2609.1264860801457	0.1333521432163324
2618.3639402089448	0.1584893192461114
2627.4948931868744	0.18836490894898023
2636.493717867609	0.22387211385683378
2645.4283944607687	0.26607250597988086
2654.362132203886	0.3162277660168379
2663.5205045195567	0.3758374042884443
2672.883265422929	0.4466835921509634
2682.508668394934	0.5308844442309879
2692.594755979106	0.630957344480193
2702.893314823356	0.7498942093324559
2713.5781764664584	0.8912509381337458
2724.610112346938	1.0592537251772898
2735.9598642843644	1.2589254117941662
2747.2049575600304	1.4962356560944328
2758.1136415777396	1.7782794100389228
2768.5226490443088	2.1134890398366473
2778.3394427943426	2.511886431509582
2787.729112951424	2.9853826189179573
2795.7514883927684	3.548133892335753
2802.954262361364	4.216965034285823
2809.4701491701867	5.011872336272725
2815.4475834579907	5.956621435290109
2820.835930372704	7.079457843841373
2825.8127416800526	8.413951416451948
2831.0      	10.0        
