# T(K)	P(bar)
2649.6      	1e-08       
2650.138577792677	1.1885022274370215e-08
2650.7927574841847	1.4125375446227554e-08
2651.5363263634804	1.6788040181225588e-08
2652.3902055834174	1.9952623149688826e-08
2653.503431686948	2.3713737056616554e-08
2654.723750322073	2.818382931264461e-08
2656.1690855356355	3.3496543915782795e-08
2657.8645208898074	3.981071705534969e-08
2659.8281076536755	4.731512589614813e-08
2662.100965228928	5.6234132519034905e-08
2664.6677439642435	6.683439175686162e-08
2667.549009152548	7.94328234724282e-08
2670.7363137762945	9.440608762859226e-08
2674.201409852707	1.1220184543019653e-07
2677.7651962928617	1.333521432163324e-07
2681.399994148291	1.584893192461114e-07
2685.1031856617974	1.883649089489802e-07
2688.804674876561	2.2387211385683422e-07
2692.314726395302	2.6607250597988136e-07
2695.2720777909285	3.162277660168379e-07
2697.983700416486	3.7583740428844433e-07
2701.5873572933892	4.466835921509635e-07
2706.874782141138	5.308844442309889e-07
2712.0754210517266	6.309573444801942e-07
2716.848449285259	7.498942093324558e-07
2722.526320969443	8.912509381337459e-07
2733.3123356209276	1.0592537251772896e-06
2753.900938717573	1.2589254117941687e-06
2767.550155383209	1.4962356560944327e-06
2777.57819267223	1.7782794100389227e-06
2786.984067851954	2.1134890398366474e-06
2798.659455558496	2.511886431509582e-06
2816.475752779625	2.9853826189179636e-06
2832.5029767855362	3.5481338923357534e-06
2846.0525684263853	4.216965034285822e-06
2860.030400404186	5.011872336272725e-06
2875.457773528129	5.95662143529011e-06
2885.9967461701413	7.079457843841388e-06
2892.9606725438193	8.413951416451948e-06
2903.155959963603	1e-05       
2915.9554451647145	1.188502227437019e-05
2928.5452979546035	1.4125375446227555e-05
2934.713934730699	1.678804018122562e-05
2938.277350936042	1.9952623149688786e-05
2940.069822939689	2.371373705661655e-05
2939.1369576682227	2.818382931264455e-05
2933.292783790515	3.349654391578279e-05
2919.7404121738837	3.981071705534977e-05
2896.886970767476	4.731512589614803e-05
2833.1495354600575	5.623413251903491e-05
2644.282314651202	6.683439175686148e-05
2117.0116674402834	7.943282347242821e-05
2176.588663587897	9.440608762859246e-05
2273.119840811265	0.00011220184543019629
2345.3807148327155	0.0001333521432163324
2379.8557276984448	0.00015848931924611142
2391.805963579592	0.00018836490894898024
2401.051477517595	0.00022387211385683424
2410.2650393619756	0.0002660725059798809
2419.759428961789	0.0003162277660168379
2429.1021071322775	0.00037583740428844437
2438.4810882388037	0.0004466835921509635
2448.5935246772597	0.0005308844442309889
2459.1453362772236	0.000630957344480193
2469.9607937041806	0.0007498942093324559
2481.013047854083	0.0008912509381337458
2492.379049738962	0.0010592537251772895
2504.2330340935405	0.0012589254117941673
2516.3806045242495	0.0014962356560944345
2528.6079979966603	0.0017782794100389225
2540.466829239504	0.0021134890398366475
2551.845048285805	0.002511886431509582
2563.043465243305	0.0029853826189179603
2573.9504480229657	0.0035481338923357567
2584.5211471465036	0.004216965034285822
2594.5842523433935	0.0050118723362727255
2604.3537542843515	0.005956621435290103
2614.221345658914	0.00707945784384138
2624.3283740039997	0.008413951416451957
2634.8      	0.01        
2645.4176764842077	0.01188502227437019
2656.5936214101052	0.014125375446227554
2668.5139565429904	0.016788040181225587
2681.3368114534137	0.01995262314968883
2695.0135892967874	0.023713737056616554
2709.404066284359	0.02818382931264455
2724.836218186702	0.033496543915782793
2741.391441489901	0.03981071705534969
2759.156324354051	0.04731512589614813
2777.652682552656	0.056234132519034905
2796.839293854731	0.06683439175686148
2816.8511120643566	0.07943282347242821
2837.4832068747164	0.09440608762859228
2858.457915106824	0.11220184543019629
2878.0643955363084	0.1333521432163324
2897.1144880538614	0.1584893192461114
2915.589786373749	0.18836490894898023
2933.0429142396947	0.22387211385683378
2948.1999548888043	0.26607250597988086
2959.869462917061	0.3162277660168379
2969.4102922721363	0.3758374042884443
2976.928249086527	0.4466835921509634
2982.5907506481003	0.5308844442309879
2986.3730334921647	0.630957344480193
2988.691936568885	0.7498942093324559
2990.2267715255825	0.8912509381337458
2991.1209259697494	1.0592537251772898
2991.504550788168	1.2589254117941662
2991.5821031555865	1.4962356560944328
2991.5401896289372	1.7782794100389228
2991.3842564229367	2.1134890398366473
2991.1451424924526	2.511886431509582
2990.904381719194	2.9853826189179573
2990.5225245965016	3.548133892335753
2990.0790163888714	4.216965034285823
2989.539984297875	5.011872336272725
2988.8753553738247	5.956621435290109
2988.082951415779	7.079457843841373
2987.1036618462394	8.413951416451948
2986.1      	10.0        
