# T(K)	P(bar)
2921.5      	1e-08       
2920.3459047299775	1.1885022274370215e-08
2918.9049833684785	1.4125375446227554e-08
2917.192816727647	1.6788040181225588e-08
2915.1788304938614	1.9952623149688826e-08
2912.713829836044	2.3713737056616554e-08
2909.901327380206	2.818382931264461e-08
2906.522648991256	3.3496543915782795e-08
2902.604827997933	3.981071705534969e-08
2898.2359189114873	4.731512589614813e-08
2893.611829361836	5.6234132519034905e-08
2887.699425966486	6.683439175686162e-08
2880.4872068317977	7.94328234724282e-08
2871.7692839321335	9.440608762859226e-08
2861.249474639556	1.1220184543019653e-07
2848.9311693355426	1.333521432163324e-07
2835.1298101428606	1.584893192461114e-07
2820.0524014391603	1.883649089489802e-07
2804.048886364958	2.2387211385683422e-07
2787.8547850398563	2.6607250597988136e-07
2770.586381501083	3.162277660168379e-07
2752.663075859855	3.7583740428844433e-07
2734.8862560076986	4.466835921509635e-07
2718.2005809569655	5.308844442309889e-07
2704.332210528729	6.309573444801942e-07
2693.174845071295	7.498942093324558e-07
2683.575366584707	8.912509381337459e-07
2675.226591768708	1.0592537251772896e-06
2667.7040814293814	1.2589254117941687e-06
2660.957025463982	1.4962356560944327e-06
2654.7347910570957	1.7782794100389227e-06
2648.899316535187	2.1134890398366474e-06
2643.4845640132057	2.511886431509582e-06
2638.58909495695	2.9853826189179636e-06
2634.498760722916	3.5481338923357534e-06
2630.57863384245	4.216965034285822e-06
2626.869913638313	5.011872336272725e-06
2623.3515636448296	5.95662143529011e-06
2619.864986229427	7.079457843841388e-06
2616.4662400949637	8.413951416451948e-06
2612.785987261146	1e-05       
2608.819005191676	1.188502227437019e-05
2604.5927521604863	1.4125375446227555e-05
2599.9857955808707	1.678804018122562e-05
2595.0334786620338	1.9952623149688786e-05
2589.6003250447447	2.371373705661655e-05
2583.6721078280225	2.818382931264455e-05
2577.2975692600844	3.349654391578279e-05
2570.598385563226	3.981071705534977e-05
2563.4279505962913	4.731512589614803e-05
2555.8006830558784	5.623413251903491e-05
2547.7143494438424	6.683439175686148e-05
2539.1932862733893	7.943282347242821e-05
2530.6535006258314	9.440608762859246e-05
2521.8224066161533	0.00011220184543019629
2512.7732141507245	0.0001333521432163324
2503.5742849649923	0.00015848931924611142
2494.5329880812296	0.00018836490894898024
2485.7485224824054	0.00022387211385683424
2476.9265751360226	0.0002660725059798809
2468.032275485169	0.0003162277660168379
2459.0410944604464	0.00037583740428844437
2450.669772481068	0.0004466835921509635
2442.388619430154	0.0005308844442309889
2434.038476700847	0.000630957344480193
2425.5866367199774	0.0007498942093324559
2417.097224112081	0.0008912509381337458
2409.38172314935	0.0010592537251772895
2401.896719449397	0.0012589254117941673
2394.6191254728224	0.0014962356560944345
2387.5207478152483	0.0017782794100389225
2380.721684569351	0.0021134890398366475
2374.6230356034503	0.002511886431509582
2368.740193123134	0.0029853826189179603
2363.1501581705093	0.0035481338923357567
2358.0148953141734	0.004216965034285822
2354.0364583758674	0.0050118723362727255
2351.301868937481	0.005956621435290103
2349.542072704565	0.00707945784384138
2348.8166941848	0.008413951416451957
2349.3      	0.01        
2351.8390095940495	0.01188502227437019
2355.6660465682594	0.014125375446227554
2360.621549817059	0.016788040181225587
2366.554819613606	0.01995262314968883
2373.31369238504	0.023713737056616554
2380.642501932439	0.02818382931264455
2388.1031562942694	0.033496543915782793
2395.519641707186	0.03981071705534969
2402.8393834291555	0.04731512589614813
2410.206576948939	0.056234132519034905
2417.1106314368653	0.06683439175686148
2423.5980183050956	0.07943282347242821
2429.6460064678345	0.09440608762859228
2435.331790970116	0.11220184543019629
2439.9632430400725	0.1333521432163324
2443.664825669361	0.1584893192461114
2446.442187812909	0.18836490894898023
2448.3242147334513	0.22387211385683378
2449.441049307596	0.26607250597988086
2449.6458988311015	0.3162277660168379
2449.5979575505157	0.3758374042884443
2449.5      	0.4466835921509634
2449.5102239718353	0.5308844442309879
2449.5890215310865	0.630957344480193
2449.865472084279	0.7498942093324559
2450.268616368107	0.8912509381337458
2450.769296357649	1.0592537251772898
2451.327304729008	1.2589254117941662
2451.7926189335185	1.4962356560944328
2452.2588622263775	1.7782794100389228
2452.654324769418	2.1134890398366473
2452.9548575075473	2.511886431509582
2453.195618280806	2.9853826189179573
2453.3509901613993	3.548133892335753
2453.4534972685215	4.216965034285823
2453.5325019627658	5.011872336272725
2453.6      	5.956621435290109
2453.6      	7.079457843841373
2453.737898177502	8.413951416451948
2453.8      	10.0        
