# T(K)	P(bar)
2818.8      	1e-08       
2815.6454729286047	1.1885022274370215e-08
2812.071960084349	1.4125375446227554e-08
2808.0838376372058	1.6788040181225588e-08
2803.7391776663303	1.9952623149688826e-08
2799.286273252209	2.3713737056616554e-08
2795.318045848392	2.818382931264461e-08
2790.892743393093	3.3496543915782795e-08
2785.9171908122125	3.981071705534969e-08
2780.394334850585	4.731512589614813e-08
2774.3595061162946	5.6234132519034905e-08
2767.9443972648105	6.683439175686162e-08
2761.136876549314	7.94328234724282e-08
2754.0402734914774	9.440608762859226e-08
2746.799384856601	1.1220184543019653e-07
2739.749285594556	1.333521432163324e-07
2732.787245123449	1.584893192461114e-07
2725.8110566332302	1.883649089489802e-07
2718.838696261189	2.2387211385683422e-07
2712.0579149181663	2.6607250597988136e-07
2705.6451985092885	3.162277660168379e-07
2699.522386919608	3.7583740428844433e-07
2693.6620853358995	4.466835921509635e-07
2688.0354418306974	5.308844442309889e-07
2682.91360047936	6.309573444801942e-07
2678.151550714741	7.498942093324558e-07
2673.5033751083	8.912509381337459e-07
2668.8488883630052	1.0592537251772896e-06
2663.99964798091	1.2589254117941687e-06
2658.8811917312964	1.4962356560944327e-06
2653.3936532834728	1.7782794100389227e-06
2647.490666996351	2.1134890398366474e-06
2641.182275624526	2.511886431509582e-06
2634.5212275643744	2.9853826189179636e-06
2627.6054427370277	3.5481338923357534e-06
2620.103770416379	4.216965034285822e-06
2611.9897880213134	5.011872336272725e-06
2603.204264485899	5.95662143529011e-06
2593.695416989346	7.079457843841388e-06
2583.598720284892	8.413951416451948e-06
2572.5579617834396	1e-05       
2560.4445548352855	1.188502227437019e-05
2547.1368414469316	1.4125375446227555e-05
2532.847467649141	1.678804018122562e-05
2517.399941052198	1.9952623149688786e-05
2500.472243632288	2.371373705661655e-05
2481.907230033692	2.818382931264455e-05
2461.5774020375065	3.349654391578279e-05
2440.478823497978	3.981071705534977e-05
2418.4034236291022	4.731512589614803e-05
2395.931926217576	5.623413251903491e-05
2373.4802723868047	6.683439175686148e-05
2351.3414353645067	7.943282347242821e-05
2331.2581681269403	9.440608762859246e-05
2313.341668444075	0.00011220184543019629
2298.6210712630623	0.0001333521432163324
2287.7883472331678	0.00015848931924611142
2280.63392969906	0.00018836490894898024
2276.3772484881015	0.00022387211385683424
2274.308385502002	0.0002660725059798809
2274.212670011312	0.0003162277660168379
2275.739574376493	0.00037583740428844437
2278.995088479585	0.0004466835921509635
2284.312040602624	0.0005308844442309889
2291.237286131277	0.000630957344480193
2299.7410432988963	0.0007498942093324559
2310.232675861485	0.0008912509381337458
2322.024146350001	0.0010592537251772895
2334.763309920226	0.0012589254117941673
2348.0492912423133	0.0014962356560944345
2361.478797796326	0.0017782794100389225
2374.523512163454	0.0021134890398366475
2387.195155910694	0.002511886431509582
2399.956009781539	0.0029853826189179603
2412.558091662809	0.0035481338923357567
2424.665869450163	0.004216965034285822
2435.3530431863946	0.0050118723362727255
2445.131294215802	0.005956621435290103
2454.0844547157612	0.00707945784384138
2462.1893108336	0.008413951416451957
2469.6      	0.01        
2476.447631935467	0.01188502227437019
2483.2633223471175	0.014125375446227554
2490.0924067259316	0.016788040181225587
2497.0499224053146	0.01995262314968883
2504.3654082285143	0.023713737056616554
2511.882970722698	0.02818382931264455
2519.4516105710513	0.033496543915782793
2526.919641707186	0.03981071705534969
2534.184322961027	0.04731512589614813
2541.002895686784	0.056234132519034905
2547.045545331838	0.06683439175686148
2552.3792194437287	0.07943282347242821
2556.923412732229	0.09440608762859228
2560.6724850335636	0.11220184543019629
2563.21978367204	0.1333521432163324
2565.1037520710834	0.1584893192461114
2566.43485591365	0.18836490894898023
2567.3121073667253	0.22387211385683378
2567.870524653798	0.26607250597988086
2568.264747077754	0.3162277660168379
2568.6040848989683	0.3758374042884443
2568.890334422427	0.4466835921509634
2569.1408958873417	0.5308844442309879
2569.456086124347	0.630957344480193
2569.7654720842793	0.7498942093324559
2569.989538789369	0.8912509381337458
2570.12418519395	1.0592537251772898
2570.2      	1.2589254117941662
2570.2      	1.4962356560944328
2570.2      	1.7782794100389228
2570.1614188076455	2.1134890398366473
2570.081714164151	2.511886431509582
2570.001460573065	2.9853826189179573
2569.9245049193005	3.548133892335753
2569.793005462957	4.216965034285823
2569.602494111703	5.011872336272725
2569.3626066121474	5.956621435290109
2569.1248854247337	7.079457843841373
2568.8242036449965	8.413951416451948
2568.5      	10.0        
