# T(K)	P(bar)
2756.0      	1e-08       
2747.6135743711693	1.1885022274370215e-08
2741.814950105436	1.4125375446227554e-08
2737.8892250914705	1.6788040181225588e-08
2735.214691624874	1.9952623149688826e-08
2733.5448524695785	2.3713737056616554e-08
2732.557187258445	2.818382931264461e-08
2731.957728616091	3.3496543915782795e-08
2731.589246518365	3.981071705534969e-08
2731.268536875355	4.731512589614813e-08
2730.9550392787687	5.6234132519034905e-08
2730.6449712983244	6.683439175686162e-08
2730.2463062842235	7.94328234724282e-08
2729.747576827115	9.440608762859226e-08
2729.175749817831	1.1220184543019653e-07
2728.323540016924	1.333521432163324e-07
2727.3531931079197	1.584893192461114e-07
2726.2201921151327	1.883649089489802e-07
2724.863677899823	2.2387211385683422e-07
2723.188426038606	2.6607250597988136e-07
2721.13036578013	3.162277660168379e-07
2718.7673208082556	3.7583740428844433e-07
2715.9955410343096	4.466835921509635e-07
2712.7296972955705	5.308844442309889e-07
2709.1050095700084	6.309573444801942e-07
2705.0824948832997	7.498942093324558e-07
2700.613836318931	8.912509381337459e-07
2695.607036423506	1.0592537251772896e-06
2689.926835370222	1.2589254117941687e-06
2683.5675412419137	1.4962356560944327e-06
2676.4778251200896	1.7782794100389227e-06
2668.6489748027802	2.1134890398366474e-06
2660.1519863849026	2.511886431509582e-06
2651.163584183252	2.9853826189179636e-06
2641.7896001546374	3.5481338923357534e-06
2631.791857823693	4.216965034285822e-06
2621.117223250048	5.011872336272725e-06
2609.7303306073736	5.95662143529011e-06
2597.8442712366823	7.079457843841388e-06
2585.499196711118	8.413951416451948e-06
2572.1884440400363	1e-05       
2557.7478270612523	1.188502227437019e-05
2542.0090587570335	1.4125375446227555e-05
2525.1429126350517	1.678804018122562e-05
2506.69746638268	1.9952623149688786e-05
2486.094397431897	2.371373705661655e-05
2463.067825082065	2.818382931264455e-05
2437.491454405163	3.349654391578279e-05
2410.7717217291906	3.981071705534977e-05
2382.7848299686175	4.731512589614803e-05
2353.8175341373076	5.623413251903491e-05
2324.676303378154	6.683439175686148e-05
2297.679663987654	7.943282347242821e-05
2279.907001251663	9.440608762859246e-05
2267.474175559534	0.00011220184543019629
2259.9403570876875	0.0001333521432163324
2256.6981118729136	0.00015848931924611142
2257.562931574839	0.00018836490894898024
2262.1238979751897	0.00022387211385683424
2269.460450307977	0.0002660725059798809
2279.1555078670176	0.0003162277660168379
2290.698175899256	0.00037583740428844437
2304.6503791982204	0.0004466835921509635
2320.9329466490217	0.0005308844442309889
2338.184656627496	0.000630957344480193
2355.458297757026	0.0007498942093324559
2372.116767780067	0.0008912509381337458
2387.314005395781	0.0010592537251772895
2402.4152113374016	0.0012589254117941673
2417.0367659295384	0.0014962356560944345
2430.662451383416	0.0017782794100389225
2442.2050471264506	0.0021134890398366475
2451.9213669330206	0.002511886431509582
2460.5484999255273	0.0029853826189179603
2468.1067211053496	0.0035481338923357567
2474.730452172719	0.004216965034285822
2480.737111863886	0.0050118723362727255
2486.7147126391606	0.005956621435290103
2492.8881559739134	0.00707945784384138
2499.3726166487995	0.008413951416451957
2506.3      	0.01        
2513.6862097281446	0.01188502227437019
2521.3750831576067	0.014125375446227554
2529.16236572576	0.016788040181225587
2536.8770946315167	0.01995262314968883
2544.351612755221	0.023713737056616554
2551.040157981143	0.02818382931264455
2557.0887079282884	0.033496543915782793
2562.350548742884	0.03981071705534969
2566.738228589933	0.04731512589614813
2570.108327753238	0.056234132519034905
2572.4214437363107	0.06683439175686148
2574.0342342894414	0.07943282347242821
2575.074197911869	0.09440608762859228
2575.704393032337	0.11220184543019629
2575.8587747680026	0.1333521432163324
2575.842678472806	0.1584893192461114
2575.763762007196	0.18836490894898023
2575.6839846618964	0.22387211385683378
2575.604210763743	0.26607250597988086
2575.7458988311014	0.3162277660168379
2575.9020424494843	0.3758374042884443
2576.0602229482843	0.4466835921509634
2576.2204479436705	0.5308844442309879
2576.3780430621737	0.630957344480193
2576.4      	0.7498942093324559
2576.4      	0.8912509381337458
2576.37581480605	1.0592537251772898
2576.295449211832	1.2589254117941662
2576.2178968444136	1.4962356560944328
2576.080379257874	1.7782794100389228
2575.922837615291	2.1134890398366473
2575.726856656604	2.511886431509582
2575.405842292259	2.9853826189179573
2575.098019677201	3.548133892335753
2574.7325136573927	4.216965034285823
2574.2724862606406	5.011872336272725
2573.6878198364425	5.956621435290109
2572.974656274201	7.079457843841373
2572.0726109349903	8.413951416451948
2571.1      	10.0        
