# T(K)	P(bar)
2781.6      	1e-08       
2776.060342703892	1.1885022274370215e-08
2769.965182642339	1.4125375446227554e-08
2763.3739606377203	1.6788040181225588e-08
2756.3500775946854	1.9952623149688826e-08
2749.034591771486	2.3713737056616554e-08
2741.6574980675614	2.818382931264461e-08
2733.90611804504	3.3496543915782795e-08
2725.7373443662755	3.981071705534969e-08
2717.1268982911033	4.731512589614813e-08
2708.427339985827	5.6234132519034905e-08
2698.7390815463777	6.683439175686162e-08
2688.1804799652127	7.94328234724282e-08
2677.421707105019	9.440608762859226e-08
2667.5641118643553	1.1220184543019653e-07
2659.274434710082	1.333521432163324e-07
2652.0446918074554	1.584893192461114e-07
2645.690864518098	1.883649089489802e-07
2640.155095051884	2.2387211385683422e-07
2635.448435060845	2.6607250597988136e-07
2631.6984280535644	3.162277660168379e-07
2628.3591510103197	3.7583740428844433e-07
2625.4063213533054	4.466835921509635e-07
2622.813728788608	5.308844442309889e-07
2620.6073971295705	6.309573444801942e-07
2618.6407994732544	7.498942093324558e-07
2616.6359957382033	8.912509381337459e-07
2614.353518211753	1.0592537251772896e-06
2611.545273202287	1.2589254117941687e-06
2608.908492710062	1.4962356560944327e-06
2606.1468266417364	1.7782794100389227e-06
2603.1953334981754	2.1134890398366474e-06
2600.031994894339	2.511886431509582e-06
2596.6613440687197	2.9853826189179636e-06
2593.4292066106127	3.5481338923357534e-06
2590.0996174535785	4.216965034285822e-06
2586.6049097127816	5.011872336272725e-06
2582.8767768691246	5.95662143529011e-06
2578.914757078894	7.079457843841388e-06
2574.776749207456	8.413951416451948e-06
2570.3137397634214	1e-05       
2565.5268716745304	1.188502227437019e-05
2560.4237271029415	1.4125375446227555e-05
2555.035930425086	1.678804018122562e-05
2549.370421861392	1.9952623149688786e-05
2543.2305021050556	2.371373705661655e-05
2536.5248330677223	2.818382931264455e-05
2529.1822635173385	3.349654391578279e-05
2521.482052371525	3.981071705534977e-05
2513.1305804850217	4.731512589614803e-05
2504.1008196670537	5.623413251903491e-05
2494.32905117786	6.683439175686148e-05
2483.7374492930912	7.943282347242821e-05
2472.3330774166566	9.440608762859246e-05
2459.982037530114	0.00011220184543019629
2446.621785504172	0.0001333521432163324
2432.223178899292	0.00015848931924611142
2417.4426239936624	0.00018836490894898024
2403.584853799874	0.00022387211385683424
2391.0906553100294	0.0002660725059798809
2380.1030143677735	0.0003162277660168379
2370.3975888509317	0.00037583740428844437
2363.3439749608997	0.0004466835921509635
2358.9630931543106	0.0005308844442309889
2356.576779941621	0.000630957344480193
2355.905286409059	0.0007498942093324559
2356.8663519873116	0.0008912509381337458
2360.2382245827926	0.0010592537251772895
2365.3643544877214	0.0012589254117941673
2371.968349214403	0.0014962356560944345
2379.7639185175285	0.0017782794100389225
2388.539453637233	0.0021134890398366475
2398.936167778511	0.002511886431509582
2410.763960278063	0.0029853826189179603
2423.5880600287073	0.0035481338923357567
2436.839168376842	0.004216965034285822
2449.9446077030243	0.0050118723362727255
2463.170335860993	0.005956621435290103
2476.3755716961964	0.00707945784384138
2489.2757017124	0.008413951416451957
2501.6      	0.01        
2512.9870733308894	0.01188502227437019
2523.8461130943447	0.014125375446227554
2533.901385816373	0.016788040181225587
2542.890680744618	0.01995262314968883
2550.4447150185742	0.023713737056616554
2556.508048424977	0.02818382931264455
2561.6103480533434	0.033496543915782793
2565.679846445937	0.03981071705534969
2568.704510310192	0.04731512589614813
2570.7422446880046	0.056234132519034905
2572.1838719821217	0.06683439175686148
2573.2651051455905	0.07943282347242821
2574.074197911869	0.09440608762859228
2574.710982580843	0.11220184543019629
2575.096936920006	0.1333521432163324
2575.2573215271946	0.1584893192461114
2575.263762007196	0.18836490894898023
2575.135938647585	0.22387211385683378
2574.8168430549727	0.26607250597988086
2574.581151753348	0.3162277660168379
2574.346936325774	0.3758374042884443
2574.1397770517156	0.4466835921509634
2573.9795520563293	0.5308844442309879
2573.8219569378266	0.630957344480193
2573.73363197893	0.7498942093324559
2573.610461210631	0.8912509381337458
2573.4516296121	1.0592537251772898
2573.281796847328	1.2589254117941662
2572.9715873776545	1.4962356560944328
2572.6607585157485	1.7782794100389228
2572.2685128458734	2.1134890398366473
2571.7719991490567	2.511886431509582
2571.210224011453	2.9853826189179573
2570.445049193003	3.548133892335753
2569.5045355092216	4.216965034285823
2568.3474666329844	5.011872336272725
2566.938246285032	5.956621435290109
2565.2741979731354	7.079457843841373
2563.1694255149773	8.413951416451948
2560.9      	10.0        
