# T(K)	P(bar)
3347.3      	1e-08       
3347.1461206306635	1.1885022274370215e-08
3346.880996673696	1.4125375446227554e-08
3346.565469454608	1.6788040181225588e-08
3346.232069434494	1.9952623149688826e-08
3345.8344886832333	2.3713737056616554e-08
3345.3785936292225	2.818382931264461e-08
3344.812365785746	3.3496543915782795e-08
3344.123116295914	3.981071705534969e-08
3343.305610626065	4.731512589614813e-08
3342.3651178363057	5.6234132519034905e-08
3341.179885193297	6.683439175686162e-08
3339.796636566707	7.94328234724282e-08
3338.1991810033774	9.440608762859226e-08
3336.3360677015544	1.1220184543019653e-07
3334.0893327718913	1.333521432163324e-07
3331.489366059783	1.584893192461114e-07
3328.478004302224	1.883649089489802e-07
3324.96720241861	2.2387211385683422e-07
3320.818959714643	2.6607250597988136e-07
3316.150085651405	3.162277660168379e-07
3310.7754505938337	3.7583740428844433e-07
3304.67063617205	4.466835921509635e-07
3297.7980507601287	5.308844442309889e-07
3290.0758899534967	6.309573444801942e-07
3281.8322537244594	7.498942093324558e-07
3273.096289005969	8.912509381337459e-07
3263.631739592561	1.0592537251772896e-06
3253.0264833511314	1.2589254117941687e-06
3241.5487329732105	1.4962356560944327e-06
3229.390151001003	1.7782794100389227e-06
3214.705043643789	2.1134890398366474e-06
3194.6610973924435	2.511886431509582e-06
3164.6462543262173	2.9853826189179636e-06
3133.3735021552247	3.5481338923357534e-06
3104.354972406373	4.216965034285822e-06
3083.542242877704	5.011872336272725e-06
3074.5005685981196	5.95662143529011e-06
3073.232722265246	7.079457843841388e-06
3072.5484072899935	8.413951416451948e-06
3071.8749772520473	1e-05       
3070.8954057431124	1.188502227437019e-05
3069.265314804348	1.4125375446227555e-05
3066.610458470332	1.678804018122562e-05
3062.721659196151	1.9952623149688786e-05
3057.412684980542	2.371373705661655e-05
3050.3302835471213	2.818382931264455e-05
3041.019863181527	3.349654391578279e-05
3029.2385401284328	3.981071705534977e-05
3014.6828736091306	4.731512589614803e-05
2998.7963866034324	5.623413251903491e-05
2981.9544856372445	6.683439175686148e-05
2962.3640039556426	7.943282347242821e-05
2938.1627630598223	9.440608762859246e-05
2913.7605371734676	0.00011220184543019629
2889.274285348053	0.0001333521432163324
2864.4955757371986	0.00015848931924611142
2841.538543649731	0.00018836490894898024
2819.4237202212666	0.00022387211385683424
2797.3599505620564	0.0002660725059798809
2775.272393159881	0.0003162277660168379
2753.0827969544744	0.00037583740428844437
2731.689418562729	0.0004466835921509635
2710.1683734165345	0.0005308844442309889
2688.2729716937374	0.000630957344480193
2665.992876587864	0.0007498942093324559
2643.48792429712	0.0008912509381337458
2621.557910975647	0.0010592537251772895
2598.9685327577017	0.0012589254117941673
2575.6575114199304	0.0014962356560944345
2551.5587508202584	0.0017782794100389225
2526.971440710095	0.0021134890398366475
2501.8773415683113	0.002511886431509582
2475.329411146951	0.0029853826189179603
2447.208592662899	0.0035481338923357567
2417.363884817043	0.004216965034285822
2386.160457849942	0.0050118723362727255
2353.3323152961057	0.005956621435290103
2319.284697992498	0.00707945784384138
2284.831407064001	0.008413951416451957
2251.0      	0.01        
2222.1476182494357	0.01188502227437019
2197.0747505271806	0.014125375446227554
2175.966289458039	0.016788040181225587
2158.9533941300033	0.01995262314968883
2146.3898423901605	0.023713737056616554
2138.2063260919135	0.02818382931264455
2132.6319233305653	0.033496543915782793
2129.429297703053	0.03981071705534969
2128.3022551550957	0.04731512589614813
2129.321122344002	0.056234132519034905
2131.8590154905	0.06683439175686148
2135.3986788700636	0.07943282347242821
2139.771808555966	0.09440608762859228
2144.8559526479703	0.11220184543019629
2150.336504264086	0.1333521432163324
2156.0991145395838	0.1584893192461114
2162.1628014315315	0.18836490894898023
2168.5292730626034	0.22387211385683378
2175.1505066093196	0.26607250597988086
2181.6277509062625	0.3162277660168379
2188.1347616535863	0.3758374042884443
2194.548694983096	0.4466835921509634
2200.7259020003153	0.5308844442309879
2206.3205287071605	0.630957344480193
2211.082081264189	0.7498942093324559
2215.159392155486	0.8912509381337458
2218.498111400347	1.0592537251772898
2221.0819141870247	1.2589254117941662
2222.477856800556	1.4962356560944328
2223.398103710629	1.7782794100389228
2223.9929059617725	2.1134890398366473
2224.3365716716985	2.511886431509582
2224.4970788538703	2.9853826189179573
2224.5754950806995	3.548133892335753
2224.6534972685213	4.216965034285823
2224.7      	5.011872336272725
2224.7      	5.956621435290109
2224.7      	7.079457843841373
2224.768949088751	8.413951416451948
2224.8      	10.0        
