# T(K)	P(bar)
3265.6      	1e-08       
3265.3691809459956	1.1885022274370215e-08
3265.135747505272	1.4125375446227554e-08
3264.932734727304	1.6788040181225588e-08
3264.772827773798	1.9952623149688826e-08
3264.613795473293	2.3713737056616554e-08
3264.459531209741	2.818382931264461e-08
3264.3030914464366	3.3496543915782795e-08
3264.1446232591825	3.981071705534969e-08
3263.9764026565163	4.731512589614813e-08
3263.7412794590764	5.6234132519034905e-08
3263.444971298324	6.683439175686162e-08
3263.130870856149	7.94328234724282e-08
3262.7693515660985	9.440608762859226e-08
3262.2845680658925	1.1220184543019653e-07
3261.7422527380427	1.333521432163324e-07
3261.1404265279507	1.584893192461114e-07
3260.401382079154	1.883649089489802e-07
3259.4918006046523	2.2387211385683422e-07
3258.4547399286607	2.6607250597988136e-07
3257.2328093511883	3.162277660168379e-07
3255.77957550516	3.7583740428844433e-07
3254.0472131464435	4.466835921509635e-07
3251.9932808449375	5.308844442309889e-07
3249.6293540673973	6.309573444801942e-07
3246.778015199347	7.498942093324558e-07
3243.4853772391984	8.912509381337459e-07
3240.0084070480534	1.0592537251772896e-06
3236.57689404007	1.2589254117941687e-06
3231.0706759533646	1.4962356560944327e-06
3223.5797214094614	1.7782794100389227e-06
3212.764034915031	2.1134890398366474e-06
3196.3302466924447	2.511886431509582e-06
3170.5688439537853	2.9853826189179636e-06
3137.712610379831	3.5481338923357534e-06
3088.039999442317	4.216965034285822e-06
3036.4814420693324	5.011872336272725e-06
2998.654122336369	5.95662143529011e-06
2989.4622364230345	7.079457843841388e-06
2987.4657636687375	8.413951416451948e-06
2989.1251137397635	1e-05       
2993.3059162878085	1.188502227437019e-05
2998.803882920077	1.4125375446227555e-05
3004.504015637228	1.678804018122562e-05
3010.0418925383938	1.9952623149688786e-05
3016.3160465214037	2.371373705661655e-05
3022.674555111427	2.818382931264455e-05
3027.2412077689314	3.349654391578279e-05
3029.9362816699663	3.981071705534977e-05
3031.709541375178	4.731512589614803e-05
3032.4650068305587	5.623413251903491e-05
3032.0739783903227	6.683439175686148e-05
3030.321984093594	7.943282347242821e-05
3027.0500362841135	9.440608762859246e-05
3022.26395499778	0.00011220184543019629
3015.9517856027724	0.0001333521432163324
3008.1475271814707	0.00015848931924611142
2998.870370379001	0.00018836490894898024
2989.658178543418	0.00022387211385683424
2979.1471425880295	0.0002660725059798809
2966.658669328181	0.0003162277660168379
2951.658926524811	0.00037583740428844437
2934.3736968822045	0.0004466835921509635
2916.5052802622236	0.0005308844442309889
2897.519411810495	0.000630957344480193
2877.540307012022	0.0007498942093324559
2857.5981962632845	0.0008912509381337458
2839.170318326946	0.0010592537251772895
2820.846123741591	0.0012589254117941673
2802.5759618854318	0.0014962356560944345
2784.3493896583213	0.0017782794100389225
2766.640201669007	0.0021134890398366475
2749.4809474867434	0.002511886431509582
2732.1745546176635	0.0029853826189179603
2714.741302143716	0.0035481338923357567
2697.170136649374	0.004216965034285822
2680.008251817468	0.0050118723362727255
2662.8069323909917	0.005956621435290103
2645.1536074240207	0.00707945784384138
2626.8905797004004	0.008413951416451957
2607.8      	0.01        
2588.411199463621	0.01188502227437019
2567.926777137615	0.014125375446227554
2546.281963913504	0.016788040181225587
2523.4513382958294	0.01995262314968883
2499.755525520682	0.023713737056616554
2476.067806300093	0.02818382931264455
2451.9276284744296	0.033496543915782793
2427.5827353957734	0.03981071705534969
2403.2481314327915	0.04731512589614813
2379.8141860879487	0.056234132519034905
2357.5292050056064	0.06683439175686148
2335.9106296479413	0.07943282347242821
2315.0563152541035	0.09440608762859228
2294.988211732716	0.11220184543019629
2277.002739527717	0.1333521432163324
2260.162479289166	0.1584893192461114
2244.5322093240275	0.18836490894898023
2230.2215305653117	0.22387211385683378
2217.377932962645	0.26607250597988086
2206.6329806539975	0.3162277660168379
2197.0835803794116	0.3758374042884443
2188.5791870082007	0.4466835921509634
2180.9718582813307	0.5308844442309879
2174.5892559819717	0.630957344480193
2169.3860786304613	0.7498942093324559
2165.4092242126203	0.8912509381337458
2162.9097776726007	1.0592537251772898
2161.813417685111	1.2589254117941662
2158.633770620957	1.4962356560944328
2155.746826641737	1.7782794100389228
2153.3740513834928	2.1134890398366473
2151.881714164151	2.511886431509582
2151.801460573065	2.9853826189179573
2153.309901613994	3.548133892335753
2155.939890740857	4.216965034285823
2159.587607952109	5.011872336272725
2164.147583457991	5.956621435290109
2169.5359303727037	7.079457843841373
2177.2707052300852	8.413951416451948
2189.7      	10.0        
