# T(K)	P(bar)
3272.7      	1e-08       
3192.0672104677556	1.1885022274370215e-08
3152.350763832398	1.4125375446227554e-08
3136.0022058198037	1.6788040181225588e-08
3127.9044220470905	1.9952623149688826e-08
3120.9070008248996	2.3713737056616554e-08
3114.8217171798938	2.818382931264461e-08
3109.3020177324024	3.3496543915782795e-08
3104.4602047387507	3.981071705534969e-08
3100.3775029723893	4.731512589614813e-08
3097.1641526073777	5.6234132519034905e-08
3094.6235275620134	6.683439175686162e-08
3092.4429428509306	7.94328234724282e-08
3090.5427304813447	9.440608762859226e-08
3088.8603178837234	1.1220184543019653e-07
3087.465792754967	1.333521432163324e-07
3086.123406371895	1.584893192461114e-07
3084.7839541223284	1.883649089489802e-07
3083.4277392522376	2.2387211385683422e-07
3082.071582983633	2.6607250597988136e-07
3080.7598599356375	3.162277660168379e-07
3079.432639179386	3.7583740428844433e-07
3078.0881049395816	4.466835921509635e-07
3076.756864394304	5.308844442309889e-07
3075.6536985647854	6.309573444801942e-07
3074.5708477050225	7.498942093324558e-07
3073.5179978691017	8.912509381337459e-07
3072.509777672601	1.0592537251772896e-06
3071.5226366011434	1.2589254117941687e-06
3070.204246355031	1.4962356560944327e-06
3068.464551094491	1.7782794100389227e-06
3066.226820652302	2.1134890398366474e-06
3063.39542322264	2.511886431509582e-06
3059.864265214849	2.9853826189179636e-06
3055.647770561517	3.5481338923357534e-06
3050.7156830090644	4.216965034285822e-06
3045.032344941516	5.011872336272725e-06
3038.528340513954	5.95662143529011e-06
3031.079743308321	7.079457843841388e-06
3022.8534984149114	8.413951416451948e-06
3013.5969062784347	1e-05       
3003.6006281641253	1.188502227437019e-05
2993.3026742519182	1.4125375446227555e-05
2983.1517529747994	1.678804018122562e-05
2970.939853854977	1.9952623149688786e-05
2956.704986764585	2.371373705661655e-05
2940.669660544618	2.818382931264455e-05
2923.3598175753696	3.349654391578279e-05
2907.65138683791	3.981071705534977e-05
2891.085503497861	4.731512589614803e-05
2873.7265368757253	5.623413251903491e-05
2855.617496442083	6.683439175686148e-05
2836.9030119088457	7.943282347242821e-05
2817.7740689714597	9.440608762859246e-05
2797.402478653623	0.00011220184543019629
2775.755356808318	0.0001333521432163324
2752.797463864285	0.00015848931924611142
2728.975612074892	0.00018836490894898024
2704.186484617849	0.00022387211385683424
2678.1491872420684	0.0002660725059798809
2651.0446392263725	0.0003162277660168379
2623.133556996451	0.00037583740428844437
2595.92676056347	0.0004466835921509635
2568.397734884006	0.0005308844442309889
2540.47000709528	0.000630957344480193
2512.261158133509	0.0007498942093324559
2483.989812373251	0.0008912509381337458
2456.2942033376594	0.0010592537251772895
2428.064991065225	0.0012589254117941673
2399.4827645476757	0.0014962356560944345
2370.860217954371	0.0017782794100389225
2343.505847220877	0.0021134890398366475
2317.806728009514	0.002511886431509582
2292.7863022095153	0.0029853826189179603
2268.5122563123114	0.0035481338923357567
2244.95708052376	0.004216965034285822
2223.42671591646	0.0050118723362727255
2203.1026511570985	0.005956621435290103
2183.5355320782596	0.00707945784384138
2164.7045190392005	0.008413951416451957
2146.5      	0.01        
2130.1887868503477	0.01188502227437019
2114.5688370110915	0.014125375446227554
2099.8142886390924	0.016788040181225587
2086.026221903801	0.01995262314968883
2073.3036378634533	0.023713737056616554
2061.3839031500465	0.02818382931264455
2049.7256755898597	0.033496543915782793
2038.3790048836076	0.03981071705534969
2027.3695826678788	0.04731512589614813
2017.1025363796698	0.056234132519034905
2007.2028387217965	0.06683439175686148
1997.526125684468	0.07943282347242821
1988.2047787118054	0.09440608762859228
1979.3759553508028	0.11220184543019629
1971.5024868318762	0.1333521432163324
1964.4130271340832	0.1584893192461114
1958.3082924749228	0.18836490894898023
1953.3152484329207	0.22387211385683378
1949.4063274234138	0.26607250597988086
1946.5738210401732	0.3162277660168379
1944.3754906061918	0.3758374042884443
1942.6881049395815	0.4466835921509634
1941.3977602816458	0.5308844442309879
1940.6097846891323	0.630957344480193
1940.0354238525113	0.7498942093324559
1939.620922421262	0.8912509381337458
1939.3516296121002	1.0592537251772898
1939.195449211832	1.2589254117941662
1939.1178968444135	1.4962356560944328
1939.1598103710628	1.7782794100389228
1939.2385811923546	2.1134890398366473
1939.318285835849	2.511886431509582
1939.3985394269353	2.9853826189179573
1939.5509901613993	3.548133892335753
1939.8139890740856	4.216965034285823
1940.1300078510626	5.011872336272725
1940.4623223130877	5.956621435290109
1940.8585242921106	7.079457843841373
1941.4515927100067	8.413951416451948
1942.0      	10.0        
