# T(K)	P(bar)
3119.8      	1e-08       
2904.8305210371273	1.1885022274370215e-08
2833.44664438984	1.4125375446227554e-08
2823.294124638406	1.6788040181225588e-08
2812.996838654053	1.9952623149688826e-08
2803.613932924297	2.3713737056616554e-08
2795.4956229065247	2.818382931264461e-08
2788.03911508964	3.3496543915782795e-08
2781.267995478535	3.981071705534969e-08
2775.18872422452	4.731512589614813e-08
2770.094388279989	5.6234132519034905e-08
2765.693355351959	6.683439175686162e-08
2761.71273255975	7.94328234724282e-08
2758.107235701673	9.440608762859226e-08
2754.8250448914773	1.1220184543019653e-07
2752.1909418704936	1.333521432163324e-07
2749.8914928478266	1.584893192461114e-07
2747.9027641583075	1.883649089489802e-07
2746.227739252238	2.2387211385683422e-07
2744.8715829836333	2.6607250597988136e-07
2743.924607013391	3.162277660168379e-07
2743.038766527838	3.7583740428844433e-07
2742.1988852585773	4.466835921509635e-07
2741.377312337975	5.308844442309889e-07
2740.431741626959	6.309573444801942e-07
2739.3708477050227	7.498942093324558e-07
2738.0941508956794	8.912509381337459e-07
2736.4953701512522	1.0592537251772896e-06
2734.454374778623	1.2589254117941687e-06
2731.972699021235	1.4962356560944327e-06
2729.1272058996105	1.7782794100389227e-06
2725.7481027669855	2.1134890398366474e-06
2721.7759931924516	2.511886431509582e-06
2717.281792091626	2.9853826189179636e-06
2712.3683148352197	3.5481338923357534e-06
2707.1086884720216	4.216965034285822e-06
2701.364846904282	5.011872336272725e-06
2695.1153074532167	5.95662143529011e-06
2688.8553161846526	7.079457843841388e-06
2682.821971077436	8.413951416451948e-06
2676.8109190172886	1e-05       
2670.834738157385	1.188502227437019e-05
2664.903019585678	1.4125375446227555e-05
2659.2809708783507	1.678804018122562e-05
2653.6955455948682	1.9952623149688786e-05
2647.7948678560283	2.371373705661655e-05
2641.5102891379474	2.818382931264455e-05
2634.8999239897375	3.349654391578279e-05
2628.354744515796	3.981071705534977e-05
2621.4522931241086	4.731512589614803e-05
2614.2806284114076	5.623413251903491e-05
2606.9069985768333	6.683439175686148e-05
2599.4212047635383	7.943282347242821e-05
2591.955761808159	9.440608762859246e-05
2584.1200480249795	0.00011220184543019629
2575.991428449351	0.0001333521432163324
2567.6545583155585	0.00015848931924611142
2559.320841187916	0.00018836490894898024
2551.1039237445575	0.00022387211385683424
2542.918189634021	0.0002660725059798809
2534.761536602565	0.0003162277660168379
2526.5743264548496	0.00037583740428844437
2518.978126880969	0.0004466835921509635
2511.6503925189086	0.0005308844442309889
2504.4738153431636	0.000630957344480193
2497.462995136586	0.0007498942093324559
2490.735536088819	0.0008912509381337458
2484.713744056493	0.0010592537251772895
2478.6834829532295	0.0012589254117941673
2472.437845941252	0.0014962356560944345
2465.7979745086263	0.0017782794100389225
2458.8407935128243	0.0021134890398366475
2451.70823475796	0.002511886431509582
2443.545227805356	0.0029853826189179603
2434.2256985230106	0.0035481338923357567
2423.834130549837	0.004216965034285822
2413.1469568136054	0.0050118723362727255
2401.9604149958777	0.005956621435290103
2390.162799750217	0.00707945784384138
2377.9242982876003	0.008413951416451957
2365.6      	0.01        
2354.212926669111	0.01188502227437019
2342.7516277583186	0.014125375446227554
2331.357798274926	0.016788040181225587
2320.2473914099396	0.01995262314968883
2309.9898080274093	0.023713737056616554
2300.742106979581	0.02818382931264455
2292.1607552146947	0.033496543915782793
2284.418800144857	0.03981071705534969
2277.6493953187137	0.04731512589614813
2272.1631873784495	0.056234132519034905
2267.757112527378	0.06683439175686148
2264.1509908474522	0.07943282347242821
2261.3556315254104	0.09440608762859228
2259.367052257471	0.11220184543019629
2258.2091892399817	0.1333521432163324
2257.4987493096387	0.1584893192461114
2257.091286021587	0.18836490894898023
2256.9      	0.22387211385683378
2256.9      	0.26607250597988086
2256.9      	0.3162277660168379
2256.951021224742	0.3758374042884443
2257.0      	0.4466835921509634
2257.0102239718353	0.5308844442309879
2257.0890215310865	0.630957344480193
2257.1      	0.7498942093324559
2257.189538789369	0.8912509381337458
2257.3483703879	1.0592537251772898
2257.513652364504	1.2589254117941662
2257.7463094667596	1.4962356560944328
2257.9794311131886	1.7782794100389228
2258.2929059617722	2.1134890398366473
2258.7280008509433	2.511886431509582
2259.289775988547	2.9853826189179573
2259.9039606455976	3.548133892335753
2260.6884699537354	4.216965034285823
2261.687529441484	5.011872336272725
2262.924360327115	5.956621435290109
2264.350687451598	7.079457843841373
2266.1547781300196	8.413951416451948
2268.1      	10.0        
