# T(K)	P(bar)
3280.8      	1e-08       
3205.7838074485326	1.1885022274370215e-08
3162.98744148528	1.4125375446227554e-08
3141.8277572747543	1.6788040181225588e-08
3131.909319255382	1.9952623149688826e-08
3124.3552849814255	2.3713737056616554e-08
3117.519373228598	2.818382931264461e-08
3111.0721121342394	3.3496543915782795e-08
3105.144879182621	3.981071705534969e-08
3099.8752478172937	4.731512589614813e-08
3095.6430302633753	5.6234132519034905e-08
3092.2221986324053	6.683439175686162e-08
3089.220119991303	7.94328234724282e-08
3086.5903073084596	9.440608762859226e-08
3084.3448859496157	1.1220184543019653e-07
3082.40804549301	1.333521432163324e-07
3080.5787262678577	1.584893192461114e-07
3078.8027641583076	1.883649089489802e-07
3077.04766256172	2.2387211385683422e-07
3075.2926368023486	2.6607250597988136e-07
3073.6680622734343	3.162277660168379e-07
3072.0285542804177	3.7583740428844433e-07
3070.3977705171546	4.466835921509635e-07
3068.805744535127	5.308844442309889e-07
3067.3085909093516	6.309573444801942e-07
3066.1044796839524	7.498942093324558e-07
3065.0179978691017	8.912509381337459e-07
3064.082333254451	1.0592537251772896e-06
3063.359042906488	1.2589254117941687e-06
3062.661071599722	1.4962356560944327e-06
3061.7822755472457	1.7782794100389227e-06
3060.60553853762	2.1134890398366474e-06
3059.061139939622	2.511886431509582e-06
3057.135053753554	2.9853826189179636e-06
3054.835147579009	3.5481338923357534e-06
3052.0136065276643	4.216965034285822e-06
3048.6399057872504	5.011872336272725e-06
3044.689525630802	5.95662143529011e-06
3040.172823069939	7.079457843841388e-06
3034.8735637874424	8.413951416451948e-06
3028.7803457688806	1e-05       
3021.7707983456908	1.188502227437019e-05
3013.685504320972	1.4125375446227555e-05
3004.471591161741	1.678804018122562e-05
2995.317699724923	1.9952623149688786e-05
2985.5170216556376	2.371373705661655e-05
2974.338153355795	2.818382931264455e-05
2960.75275338641	3.349654391578279e-05
2944.582309980202	3.981071705534977e-05
2926.8759621226827	4.731512589614803e-05
2907.5717622841653	5.623413251903491e-05
2886.38388910528	6.683439175686148e-05
2862.652329995047	7.943282347242821e-05
2838.44912339763	9.440608762859246e-05
2812.566826749932	0.00011220184543019629
2784.8253567097167	0.0001333521432163324
2755.032295530409	0.00015848931924611142
2723.5843063694942	0.00018836490894898024
2690.4952363929124	0.00022387211385683424
2655.7322496560914	0.0002660725059798809
2619.5393580411037	0.0003162277660168379
2582.151389060815	0.00037583740428844437
2546.030684964607	0.0004466835921509635
2510.3207460337767	0.0005308844442309889
2475.142805328946	0.000630957344480193
2441.040012497272	0.0007498942093324559
2408.9244044240045	0.0008912509381337458
2380.6491067266206	0.0010592537251772895
2354.090680631939	0.0012589254117941673
2329.4324607943818	0.0014962356560944345
2306.841950018922	0.0017782794100389225
2286.9981724058966	0.0021134890398366475
2269.1073737588476	0.002511886431509582
2251.8046783763525	0.0029853826189179603
2235.0727992375823	0.0035481338923357567
2218.915484136266	0.004216965034285822
2203.7818220572217	0.0050118723362727255
2189.211213624885	0.005956621435290103
2174.667241259999	0.00707945784384138
2160.0602763944003	0.008413951416451957
2145.4      	0.01        
2131.5508567597294	0.01188502227437019
2118.0376078004933	0.014125375446227554
2105.0196760933577	0.016788040181225587
2092.602841374117	0.01995262314968883
2080.913967287048	0.023713737056616554
2070.3481222623786	0.02818382931264455
2060.4854867861864	0.033496543915782793
2051.3927211070927	0.03981071705534969
2043.0448850085218	0.04731512589614813
2035.520942690445	0.056234132519034905
2028.9081544402295	0.06683439175686148
2023.024804554532	0.07943282347242821
2017.8152903999683	0.09440608762859228
2013.085781159233	0.11220184543019629
2009.071856031937	0.1333521432163324
2005.305888221861	0.1584893192461114
2001.7780043022235	0.18836490894898023
1998.4593864758538	0.22387211385683378
1995.2684305497253	0.26607250597988086
1992.3279222090716	0.3162277660168379
1989.6673208082557	0.3758374042884443
1987.317101672301	0.4466835921509634
1985.285296591456	0.5308844442309879
1983.630547847178	0.630957344480193
1982.338111662883	0.7498942093324559
1981.2179978691017	0.8912509381337458
1980.2823332544508	1.0592537251772898
1979.5726952709917	1.2589254117941662
1979.1073810664816	1.4962356560944328
1978.7607585157484	1.7782794100389228
1978.5614188076454	2.1134890398366473
1978.5182858358492	2.511886431509582
1978.598539426935	2.9853826189179573
1978.8264852420991	3.548133892335753
1979.2209836111285	4.216965034285823
1979.760015702125	5.011872336272725
1980.4371090887926	5.956621435290109
1981.3087534426434	7.079457843841373
1982.3652872425114	8.413951416451948
1983.5      	10.0        
