# T(K)	P(bar)
1482.1      	1e-08       
1483.1771555853543	1.1885022274370215e-08
1484.5402657999452	1.4125375446227554e-08
1486.173550636005	1.6788040181225588e-08
1488.080411166835	1.9952623149688826e-08
1490.3068633738956	2.3713737056616554e-08
1492.958203829535	2.818382931264461e-08
1495.9381710712712	3.3496543915782795e-08
1499.6059254837012	3.981071705534969e-08
1504.4056651494147	4.731512589614813e-08
1510.4404938837056	5.6234132519034905e-08
1517.1743886122842	6.683439175686162e-08
1524.755075454165	7.94328234724282e-08
1533.225869722096	9.440608762859226e-08
1542.5887976240138	1.1220184543019653e-07
1552.7378416166284	1.333521432163324e-07
1563.6148758128854	1.584893192461114e-07
1575.2444128990423	1.883649089489802e-07
1587.610500110896	2.2387211385683422e-07
1600.6136455098688	2.6607250597988136e-07
1614.6497430457857	3.162277660168379e-07
1628.987905352529	3.7583740428844433e-07
1643.5706227163182	4.466835921509635e-07
1658.3914347895534	5.308844442309889e-07
1672.968983251052	6.309573444801942e-07
1687.543555982196	7.498942093324558e-07
1702.898648331581	8.912509381337459e-07
1719.7560761600796	1.0592537251772896e-06
1738.910392312999	1.2589254117941687e-06
1757.8331699630855	1.4962356560944327e-06
1777.1525927657187	1.7782794100389227e-06
1797.1925288198079	2.1134890398366474e-06
1817.9640323358556	2.511886431509582e-06
1839.311487564776	2.9853826189179636e-06
1860.159166869617	3.5481338923357534e-06
1881.779235185999	4.216965034285822e-06
1904.3230750903258	5.011872336272725e-06
1927.8144098600178	5.95662143529011e-06
1951.4280478097908	7.079457843841388e-06
1974.5847266252456	8.413951416451948e-06
1998.5868971792538	1e-05       
2023.3390840348807	1.188502227437019e-05
2048.5397767838867	1.4125375446227555e-05
2072.745819829324	1.678804018122562e-05
2096.919302422238	1.9952623149688786e-05
2121.625985764602	2.371373705661655e-05
2146.72914376781	2.818382931264455e-05
2171.8708699203853	3.349654391578279e-05
2196.126535029697	3.981071705534977e-05
2221.3400016490714	4.731512589614803e-05
2247.0727800683962	5.623413251903491e-05
2272.9569516684737	6.683439175686148e-05
2298.5201411798325	7.943282347242821e-05
2323.2804171090816	9.440608762859246e-05
2347.7892662772683	0.00011220184543019629
2371.978571780718	0.0001333521432163324
2395.9668590910196	0.00015848931924611142
2419.474230988803	0.00018836490894898024
2441.6762797787333	0.00022387211385683424
2463.3919476619453	0.0002660725059798809
2484.6607890522855	0.0003162277660168379
2505.4743054695923	0.00037583740428844437
2523.5346575176964	0.0004466835921509635
2538.9578128920866	0.0005308844442309889
2552.3059291969153	0.000630957344480193
2563.5475776815324	0.0007498942093324559
2572.1971678858044	0.0008912509381337458
2573.3160104535714	0.0010592537251772895
2567.2883303550752	0.0012589254117941673
2554.0322582921854	0.0014962356560944345
2532.874538875907	0.0017782794100389225
2500.0651057707055	0.0021134890398366475
2449.7574280559425	0.002511886431509582
2403.068807323703	0.0029853826189179603
2366.5330523103976	0.0035481338923357567
2342.788783062945	0.004216965034285822
2330.0733865738516	0.0050118723362727255
2323.4200477721374	0.005956621435290103
2321.896298741848	0.00707945784384138
2324.9170244024	0.008413951416451957
2331.2      	0.01        
2339.355606574826	0.01188502227437019
2350.176877231138	0.014125375446227554
2363.28840508804	0.016788040181225587
2378.176464280945	0.01995262314968883
2393.8411458806227	0.023713737056616554
2410.2301605577277	0.02818382931264455
2428.0836635972823	0.033496543915782793
2447.22209260216	0.03981071705534969
2467.313639977275	0.04731512589614813
2487.377486158813	0.056234132519034905
2507.731894310596	0.06683439175686148
2528.504805780133	0.07943282347242821
2549.3090089628477	0.09440608762859228
2569.624967364295	0.11220184543019629
2588.07358477629	0.1333521432163324
2605.3814498740003	0.1584893192461114
2621.3765046543854	0.18836490894898023
2635.910500110896	0.22387211385683378
2648.9136455098687	0.26607250597988086
2659.9588170082056	0.3162277660168379
2670.177653092751	0.3758374042884443
2679.5821506815064	0.4466835921509634
2688.1610533525295	0.5308844442309879
2695.568023922156	0.630957344480193
2701.7103376223763	0.7498942093324559
2706.9413942863844	0.8912509381337458
2711.2399633398463	1.0592537251772898
2714.6274220687046	1.2589254117941662
2716.79888835642	1.4962356560944328
2718.256965937006	1.7782794100389228
2719.2086495388357	2.1134890398366473
2719.754857507547	2.511886431509582
2719.995618280806	2.9853826189179573
2720.0754950806995	3.548133892335753
2720.1534972685213	4.216965034285823
2720.2      	5.011872336272725
2720.2      	5.956621435290109
2720.2      	7.079457843841373
2720.131050911249	8.413951416451948
2720.1      	10.0        
