# T(K)	P(bar)
1460.4      	1e-08       
1461.8618540086952	1.1885022274370215e-08
1463.6687707894016	1.4125375446227554e-08
1465.775346454093	1.6788040181225588e-08
1468.1891000716448	1.9952623149688826e-08
1471.051681480723	2.3713737056616554e-08
1474.3903133857011	2.818382931264461e-08
1478.2196223926528	3.3496543915782795e-08
1482.6443673357444	3.981071705534969e-08
1487.782067805931	4.731512589614813e-08
1493.5817733427818	5.6234132519034905e-08
1500.7206888402168	6.683439175686162e-08
1509.5275680313084	7.94328234724282e-08
1519.8702381966857	9.440608762859226e-08
1531.243911674398	1.1220184543019653e-07
1543.3297961236185	1.333521432163324e-07
1556.15104291304	1.584893192461114e-07
1569.7866007119515	1.883649089489802e-07
1584.17885288728	2.2387211385683422e-07
1599.0167979437767	2.6607250597988136e-07
1614.827579603453	3.162277660168379e-07
1630.8083298473691	3.7583740428844433e-07
1646.9126292508788	4.466835921509635e-07
1663.1447943670848	5.308844442309889e-07
1678.9043062173532	6.309573444801942e-07
1694.5727082771737	7.498942093324558e-07
1710.9358810677948	8.912509381337459e-07
1728.6495577116789	1.0592537251772896e-06
1748.4285954656712	1.2589254117941687e-06
1767.661582585431	1.4962356560944327e-06
1786.9927823946557	1.7782794100389227e-06
1806.9539476274535	2.1134890398366474e-06
1827.5543173207611	2.511886431509582e-06
1848.4202510031644	2.9853826189179636e-06
1868.6552062240194	3.5481338923357534e-06
1889.6512570378275	4.216965034285822e-06
1911.6280633137321	5.011872336272725e-06
1934.6022296964602	5.95662143529011e-06
1957.5027040839916	7.079457843841388e-06
1980.10208300399	8.413951416451948e-06
2003.7452229299363	1e-05       
2028.3390840348807	1.188502227437019e-05
2053.5397767838867	1.4125375446227555e-05
2077.745819829324	1.678804018122562e-05
2102.232111755928	1.9952623149688786e-05
2127.3725343910614	2.371373705661655e-05
2152.9527811479597	2.818382931264455e-05
2178.583820933478	3.349654391578279e-05
2203.6865092688295	3.981071705534977e-05
2229.5886867047066	4.731512589614803e-05
2255.9527254239265	5.623413251903491e-05
2282.5496008014647	6.683439175686148e-05
2309.148059669981	7.943282347242821e-05
2334.767908038053	9.440608762859246e-05
2360.186907686094	0.00011220184543019629
2385.4992860875614	0.0001333521432163324
2410.9006480086287	0.00015848931924611142
2435.5873194999467	0.00018836490894898024
2458.6919103335435	0.00022387211385683424
2481.2270748819433	0.0002660725059798809
2503.1754196109837	0.0003162277660168379
2524.380951868473	0.00037583740428844437
2542.5963283976766	0.0004466835921509635
2558.116410821991	0.0005308844442309889
2571.692793503479	0.000630957344480193
2583.4015424883273	0.0007498942093324559
2592.771931876288	0.0008912509381337458
2593.9160104535713	0.0010592537251772895
2586.8450791740956	0.0012589254117941673
2571.319935481607	0.0014962356560944345
2546.705206210354	0.0017782794100389225
2509.9428293575374	0.0021134890398366475
2452.6627026448045	0.002511886431509582
2400.705643992022	0.0029853826189179603
2361.277701762507	0.0035481338923357567
2336.4216996074565	0.004216965034285822
2322.7702003093495	0.0050118723362727255
2315.4302074979387	0.005956621435290103
2313.556446792174	0.00707945784384138
2316.6142695564	0.008413951416451957
2323.3      	0.01        
2332.301943106176	0.01188502227437019
2344.0886380416264	0.014125375446227554
2358.3937925423043	0.016788040181225587
2374.734600429869	0.01995262314968883
2391.9100888843377	0.023713737056616554
2409.8348484603193	0.02818382931264455
2429.204294856136	0.033496543915782793
2449.8204832695155	0.03981071705534969
2471.3316266946936	0.04731512589614813
2492.571088863431	0.056234132519034905
2513.960737591042	0.06683439175686148
2535.6276286397606	0.07943282347242821
2557.139657396749	0.09440608762859228
2577.931556912801	0.11220184543019629
2596.6117469282935	0.1333521432163324
2613.981449874	0.1584893192461114
2630.012742647189	0.18836490894898023
2644.6265154489997	0.22387211385683378
2657.7094347461257	0.26607250597988086
2668.9047158393073	0.3162277660168379
2679.2796955422345	0.3758374042884443
2688.8122621556486	0.4466835921509634
2697.4610533525297	0.5308844442309879
2704.868023922156	0.630957344480193
2711.010337622376	0.7498942093324559
2716.1518554970157	0.8912509381337458
2720.3157781458967	1.0592537251772898
2723.6183204923686	1.2589254117941662
2725.634682045247	1.4962356560944328
2726.93734519488	1.7782794100389228
2727.7700683464814	2.1134890398366473
2728.254857507547	2.511886431509582
2728.495618280806	2.9853826189179573
2728.5754950806995	3.548133892335753
2728.6      	4.216965034285823
2728.6      	5.011872336272725
2728.6      	5.956621435290109
2728.6      	7.079457843841373
2728.6      	8.413951416451948
2728.6      	10.0        
