# T(K)	P(bar)
1506.7      	1e-08       
1507.6232762160182	1.1885022274370215e-08
1508.776013305217	1.4125375446227554e-08
1510.172652726961	1.6788040181225588e-08
1511.8260667144298	1.9952623149688826e-08
1513.734454320482	2.3713737056616554e-08
1515.9367974587576	2.818382931264461e-08
1518.4958996873622	3.3496543915782795e-08
1521.4905999275716	3.981071705534969e-08
1525.009020620384	4.731512589614813e-08
1529.0844893760088	5.6234132519034905e-08
1533.8167020513922	6.683439175686162e-08
1539.2288891612445	7.94328234724282e-08
1545.394402291572	9.440608762859226e-08
1552.424865325568	1.1220184543019653e-07
1560.3271743885198	1.333521432163324e-07
1569.1787087127307	1.584893192461114e-07
1579.0196530429585	1.883649089489802e-07
1589.9503467298593	2.2387211385683422e-07
1602.1557531473002	2.6607250597988136e-07
1615.784995968032	3.162277660168379e-07
1630.294032700981	3.7583740428844433e-07
1645.6825177767366	4.466835921509635e-07
1661.96748202911	5.308844442309889e-07
1678.6725645903946	6.309573444801942e-07
1695.6673326564303	7.498942093324558e-07
1713.4864995668	8.912509381337459e-07
1732.6123356209275	1.0592537251772896e-06
1753.628712805368	1.2589254117941687e-06
1774.5678520083325	1.4962356560944327e-06
1796.146903897605	1.7782794100389227e-06
1818.4728022057332	2.1134890398366474e-06
1841.4028923962337	2.511886431509582e-06
1864.6764338112218	2.9853826189179636e-06
1887.2200586450103	3.5481338923357534e-06
1910.2351914823419	4.216965034285822e-06
1933.4580711647945	5.011872336272725e-06
1956.6897652338428	5.95662143529011e-06
1979.5109992255695	7.079457843841388e-06
2002.10208300399	8.413951416451948e-06
2025.3674249317562	1e-05       
2049.246950517735	1.188502227437019e-05
2073.6328742781325	1.4125375446227555e-05
2097.7608333137455	1.678804018122562e-05
2122.48235922288	1.9952623149688786e-05
2147.7725343910615	2.371373705661655e-05
2173.4352060680603	2.818382931264455e-05
2199.393239852091	3.349654391578279e-05
2225.1119450791075	3.981071705534977e-05
2250.796087281026	4.731512589614803e-05
2276.5727800683962	5.623413251903491e-05
2302.6347816373886	6.683439175686148e-05
2329.1536044015083	7.943282347242821e-05
2354.3383675313416	9.440608762859246e-05
2380.035138742713	0.00011220184543019629
2406.609286120428	0.0001333521432163324
2434.1879524932824	0.00015848931924611142
2460.525643415548	0.00018836490894898024
2485.9737446748095	0.00022387211385683424
2511.9332491479327	0.0002660725059798809
2538.021725197962	0.0003162277660168379
2563.2736974360114	0.00037583740428844437
2585.984783917103	0.0004466835921509635
2608.8863893217413	0.0005308844442309889
2631.3401639996987	0.000630957344480193
2652.6057281811836	0.0007498942093324559
2671.8270397462315	0.0008912509381337458
2687.6332847753265	0.0010592537251772895
2701.5589848021286	0.0012589254117941673
2713.062019057284	0.0014962356560944345
2721.4921059721755	0.0017782794100389225
2725.6031674696947	0.0021134890398366475
2722.852637294431	0.002511886431509582
2714.856534756695	0.0029853826189179603
2700.218371224186	0.0035481338923357567
2676.5321822778583	0.004216965034285822
2636.513787192551	0.0050118723362727255
2579.7895029571737	0.005956621435290103
2515.0070271797786	0.00707945784384138
2451.5944383044016	0.008413951416451957
2402.7      	0.01        
2373.7706785647674	0.01188502227437019
2358.201395221416	0.014125375446227554
2352.5      	0.016788040181225587
2353.220063994366	0.01995262314968883
2357.4344199577313	0.023713737056616554
2364.7532051178273	0.02818382931264455
2374.6289615797946	0.033496543915782793
2386.596269487834	0.03981071705534969
2399.9843774843766	0.04731512589614813
2413.778271734184	0.056234132519034905
2429.2064637854605	0.06683439175686148
2446.0712320556595	0.07943282347242821
2464.0299647052084	0.09440608762859228
2482.620574331958	0.11220184543019629
2500.9148100082875	0.1333521432163324
2519.4998449994723	0.1584893192461114
2537.9985003521615	0.18836490894898023
2555.9632210017676	0.22387211385683378
2572.7157396139414	0.26607250597988086
2587.241540707989	0.3162277660168379
2600.361353509237	0.3758374042884443
2612.014491638494	0.4466835921509634
2622.2246369018967	0.5308844442309879
2630.8923684195443	0.630957344480193
2638.338593980563	0.7498942093324559
2645.126320969443	0.8912509381337458
2651.220407994644	1.0592537251772898
2656.5411917729057	1.2589254117941662
2660.65146724608	1.4962356560944328
2663.8727941003895	1.7782794100389228
2666.441692193571	2.1134890398366473
2668.392573373585	2.511886431509582
2669.676630830964	2.9853826189179573
2670.4549508069967	3.548133892335753
2670.9139890740857	4.216965034285823
2671.1325019627657	5.011872336272725
2671.2      	5.956621435290109
2671.2      	7.079457843841373
2671.2      	8.413951416451948
2671.2      	10.0        
