# T(K)	P(bar)
2069.8      	1e-08       
2070.0308190540045	1.1885022274370215e-08
2070.3737541578803	1.4125375446227554e-08
2070.8690610907843	1.6788040181225588e-08
2071.5358611310126	1.9952623149688826e-08
2072.3310226335343	2.3713737056616554e-08
2073.1725783464253	2.818382931264461e-08
2074.2752684285083	3.3496543915782795e-08
2075.5983906673555	3.981071705534969e-08
2077.065181404386	4.731512589614813e-08
2078.7110437864653	5.6234132519034905e-08
2080.6576865608918	6.683439175686162e-08
2082.910750864846	7.94328234724282e-08
2085.5056653423926	9.440608762859226e-08
2088.492591604646	1.1220184543019653e-07
2091.7464835717433	1.333521432163324e-07
2095.2999941482913	1.584893192461114e-07
2100.1265634387278	1.883649089489802e-07
2106.8777025295058	2.2387211385683422e-07
2115.7326052245116	2.6607250597988136e-07
2124.735081619437	3.162277660168379e-07
2134.3796955422345	3.7583740428844433e-07
2144.544603112636	4.466835921509635e-07
2155.080236197782	5.308844442309889e-07
2165.7179066967133	6.309573444801942e-07
2176.2924188865654	7.498942093324558e-07
2187.1229458611433	8.912509381337459e-07
2202.781114003472	1.0592537251772896e-06
2229.228947484761	1.2589254117941687e-06
2253.5803908541343	1.4962356560944327e-06
2274.0329720235927	1.7782794100389227e-06
2295.0342210133786	2.1134890398366474e-06
2318.908613367933	2.511886431509582e-06
2346.5961022926604	2.9853826189179636e-06
2367.483671788917	3.5481338923357534e-06
2386.2438799543634	4.216965034285822e-06
2407.7206594892477	5.011872336272725e-06
2434.239054486193	5.95662143529011e-06
2458.6450963940115	7.079457843841388e-06
2478.09252674395	8.413951416451948e-06
2499.961874431301	1e-05       
2525.4607332883984	1.188502227437019e-05
2553.8188965997438	1.4125375446227555e-05
2575.526251330813	1.678804018122562e-05
2595.3404666844854	1.9952623149688786e-05
2620.0271062782226	2.371373705661655e-05
2648.2436876975844	2.818382931264455e-05
2672.587277017695	3.349654391578279e-05
2691.3757922134796	3.981071705534977e-05
2715.544772336661	4.731512589614803e-05
2742.2676639488973	5.623413251903491e-05
2768.4567168083568	6.683439175686148e-05
2789.71955668229	7.943282347242821e-05
2811.531583984359	9.440608762859246e-05
2837.18061810963	0.00011220184543019629
2863.0000003286705	0.0001333521432163324
2885.1030575099726	0.00015848931924611142
2904.522190816837	0.00018836490894898024
2927.182254272531	0.00022387211385683424
2949.535460383945	0.0002660725059798809
2969.554000683131	0.0003162277660168379
2985.7516511070917	0.00037583740428844437
2998.618683038359	0.0004466835921509635
3013.285194261225	0.0005308844442309889
3026.4827091385364	0.000630957344480193
3036.4027904619043	0.0007498942093324559
3042.9700719132957	0.0008912509381337458
3048.4669765639615	0.0010592537251772895
3051.81271421242	0.0012589254117941673
3051.7314482834004	0.0014962356560944345
3047.2133081758493	0.0017782794100389225
3038.2796553062403	0.0021134890398366475
3025.766577140809	0.002511886431509582
3008.195490292934	0.0029853826189179603
2984.938561028797	0.0035481338923357567
2955.7955509950884	0.004216965034285822
2920.847712791935	0.0050118723362727255
2880.8031616972507	0.005956621435290103
2836.5076457930404	0.00707945784384138
2788.6860086576016	0.008413951416451957
2738.1      	0.01        
2686.0887731643165	0.01188502227437019
2632.66717538094	0.014125375446227554
2577.3526650111503	0.016788040181225587
2519.8326901919786	0.01995262314968883
2460.9112228551194	0.023713737056616554
2410.358346351169	0.02818382931264455
2371.9121063944144	0.033496543915782793
2347.346744438704	0.03981071705534969
2336.3190870332915	0.04731512589614813
2334.516475852919	0.056234132519034905
2338.981788156419	0.06683439175686148
2346.6470274576436	0.07943282347242821
2356.1218423729483	0.09440608762859228
2366.1833505857494	0.11220184543019629
2376.140972536157	0.1333521432163324
2386.251798535278	0.1584893192461114
2396.2210351221124	0.18836490894898023
2405.8257485438166	0.22387211385683378
2414.9199729332827	0.26607250597988086
2423.4973851261325	0.3162277660168379
2431.8572285979108	0.3758374042884443
2439.8605900435145	0.4466835921509634
2447.3588136341755	0.5308844442309879
2453.9778086112883	0.630957344480193
2459.479393453818	0.7498942093324559
2463.99370033954	0.8912509381337458
2467.4497410124472	1.0592537251772898
2469.891015763361	1.2589254117941662
2471.4420631117287	1.4962356560944328
2472.5177244527545	1.7782794100389228
2473.3858119235447	2.1134890398366473
2474.146286686793	2.511886431509582
2474.788315415482	2.9853826189179573
2475.252970484198	3.548133892335753
2475.613989074086	4.216965034285823
2475.897505888297	5.011872336272725
2476.1124644626175	5.956621435290109
2476.191704858422	7.079457843841373
2476.2      	8.413951416451948
2476.2      	10.0        
