# T(K)	P(bar)
2320.8      	1e-08       
2321.0308190540045	1.1885022274370215e-08
2321.5380066526086	1.4125375446227554e-08
2322.2699589998283	1.6788040181225588e-08
2323.1766194703164	1.9952623149688826e-08
2324.2103294235944	2.3713737056616554e-08
2325.3535159269436	2.818382931264461e-08
2326.7206312588537	3.3496543915782795e-08
2328.3368325193987	3.981071705534969e-08
2330.2202418725146	4.731512589614813e-08
2332.4147250486203	5.6234132519034905e-08
2334.9677439642433	6.683439175686162e-08
2337.9335737244733	7.94328234724282e-08
2341.301637993245	9.440608762859226e-08
2345.023455472861	1.1220184543019653e-07
2349.361978095658	1.333521432163324e-07
2354.1191410923902	1.584893192461114e-07
2359.4091354819025	1.883649089489802e-07
2365.2812270482923	2.2387211385683422e-07
2371.6631389005493	2.6607250597988136e-07
2378.3465991529147	3.162277660168379e-07
2385.3429314515224	3.7583740428844433e-07
2392.7208129917994	4.466835921509635e-07
2401.3198669867056	5.308844442309889e-07
2415.3458325334445	6.309573444801942e-07
2429.578083897917	7.498942093324558e-07
2444.4852625687895	8.912509381337459e-07
2462.8908916760724	1.0592537251772896e-06
2488.469904578273	1.2589254117941687e-06
2513.5193192544125	1.4962356560944327e-06
2539.336474306063	1.7782794100389227e-06
2564.490101283405	2.1134890398366474e-06
2589.2257550094423	2.511886431509582e-06
2616.110708023308	2.9853826189179636e-06
2642.192832357196	3.5481338923357534e-06
2664.9442625007846	4.216965034285822e-06
2688.3231536009507	5.011872336272725e-06
2715.1874908413633	5.95662143529011e-06
2743.0801101645848	7.079457843841388e-06
2764.892050317724	8.413951416451948e-06
2786.670154686078	1e-05       
2810.927945326059	1.188502227437019e-05
2838.863676553708	1.4125375446227555e-05
2859.946359206185	1.678804018122562e-05
2877.263115748444	1.9952623149688786e-05
2897.2397912587644	2.371373705661655e-05
2920.0224696467085	2.818382931264455e-05
2941.5307635060176	3.349654391578279e-05
2956.6231773518116	3.981071705534977e-05
2972.9023252382303	4.731512589614803e-05
2989.5085929048914	5.623413251903491e-05
3005.4933537133425	6.683439175686148e-05
3019.429671982775	7.943282347242821e-05
3030.5657919921796	9.440608762859246e-05
3043.6144245831247	0.00011220184543019629
3056.113571567082	0.0001333521432163324
3065.0797519763087	0.00015848931924611142
3070.190050214957	0.00018836490894898024
3075.358840652025	0.00022387211385683424
3079.0924071039935	0.0002660725059798809
3079.9371033069383	0.0003162277660168379
3076.38097285373	0.00037583740428844437
3068.939797760949	0.0004466835921509635
3059.8924546217822	0.0005308844442309889
3046.951699124319	0.000630957344480193
3029.1810557961685	0.0007498942093324559
3007.5570802854895	0.0008912509381337458
2985.0644488275952	0.0010592537251772895
2958.877966419519	0.0012589254117941673
2929.301687518302	0.0014962356560944345
2897.1884054090183	0.0017782794100389225
2865.1695610533393	0.0021134890398366475
2833.4944568335654	0.002511886431509582
2800.9156290218225	0.0029853826189179603
2767.563337017314	0.0035481338923357567
2733.6353081940233	0.004216965034285822
2700.6376841763135	0.0050118723362727255
2667.7996955017547	0.005956621435290103
2634.7817369859763	0.00707945784384138
2601.5119580332007	0.008413951416451957
2567.6      	0.01        
2534.0542974846776	0.01188502227437019
2500.1833882644123	0.014125375446227554
2465.9370684612977	0.016788040181225587
2431.167765783048	0.01995262314968883
2395.8625950710834	0.023713737056616554
2361.89686614299	0.02818382931264455
2329.5151978408508	0.033496543915782793
2300.1120330988265	0.03981071705534969
2274.996480958982	0.04731512589614813
2256.029876365497	0.056234132519034905
2243.9015097921883	0.06683439175686148
2236.955014845713	0.07943282347242821
2234.5395221288195	0.09440608762859228
2235.514218840767	0.11220184543019629
2239.528143968063	0.1333521432163324
2245.357686757139	0.1584893192461114
2252.2338953379863	0.18836490894898023
2259.5894264436397	0.22387211385683378
2267.0083989718883	0.26607250597988086
2274.4031438928714	0.3162277660168379
2281.7959951257485	0.3758374042884443
2289.2304785693727	0.4466835921509634
2296.781501296201	0.5308844442309879
2304.34606698433	0.630957344480193
2311.7049620016332	0.7498942093324559
2318.8397067322344	0.8912509381337458
2325.610630322043	1.0592537251772898
2331.90035201909	1.2589254117941662
2337.018808268703	1.4962356560944328
2341.1905185531436	1.7782794100389228
2344.550341732406	2.1134890398366473
2347.0840025528305	2.511886431509582
2348.7693279656405	2.9853826189179573
2349.554950806997	3.548133892335753
2350.0674863426075	4.216965034285823
2350.3650039255313	5.011872336272725
2350.5124644626176	5.956621435290109
2350.591704858422	7.079457843841373
2350.6689490887507	8.413951416451948
2350.7      	10.0        
