# T(K)	P(bar)
2326.6      	1e-08       
2326.8308190540047	1.1885022274370215e-08
2327.557009978913	1.4125375446227554e-08
2328.335428454436	1.6788040181225588e-08
2328.9358611310126	1.9952623149688826e-08
2329.7310226335344	2.3713737056616554e-08
2330.783281531814	2.818382931264461e-08
2332.072176982072	3.3496543915782795e-08
2333.5814557785816	3.981071705534969e-08
2335.3045103101917	4.731512589614813e-08
2337.3422446880045	5.6234132519034905e-08
2339.6127152625677	6.683439175686162e-08
2342.4335737244733	7.94328234724282e-08
2345.6709895593435	9.440608762859226e-08
2348.916841786815	1.1220184543019653e-07
2353.022943554819	1.333521432163324e-07
2357.431907672359	1.584893192461114e-07
2362.436659496294	1.883649089489802e-07
2368.1972423863963	2.2387211385683422e-07
2374.658928136806	2.6607250597988136e-07
2380.690054412958	3.162277660168379e-07
2387.6470163504905	3.7583740428844433e-07
2395.010032672804	4.466835921509635e-07
2403.119866986706	5.308844442309889e-07
2417.1458325334443	6.309573444801942e-07
2431.178979834707	7.498942093324558e-07
2445.940493174105	8.912509381337459e-07
2464.3150768700225	1.0592537251772896e-06
2490.0017600954498	1.2589254117941687e-06
2515.5940413435173	1.4962356560944327e-06
2541.596284677126	1.7782794100389227e-06
2566.7901012834045	2.1134890398366474e-06
2591.7634708754804	2.511886431509582e-06
2619.6917205734662	2.9853826189179636e-06
2645.7173372764964	3.5481338923357534e-06
2668.1767761581777	4.216965034285822e-06
2691.6156712658412	5.011872336272725e-06
2719.0625619161283	5.95662143529011e-06
2746.7967004477405	7.079457843841388e-06
2768.0404576077176	8.413951416451948e-06
2789.7590536851685	1e-05       
2814.1217149561885	1.188502227437019e-05
2841.701554001918	1.4125375446227555e-05
2862.0814805659793	1.678804018122562e-05
2878.8251826812784	1.9952623149688786e-05
2898.211059756819	2.371373705661655e-05
2920.295801116433	2.818382931264455e-05
2940.9236993170575	3.349654391578279e-05
2955.554100494103	3.981071705534977e-05
2971.30972581455	4.731512589614803e-05
2987.29365437992	5.623413251903491e-05
3002.619257892961	6.683439175686148e-05
3016.1573956404095	7.943282347242821e-05
3027.1226118232753	9.440608762859246e-05
3040.064621132389	0.00011220184543019629
3052.5425001396848	0.0001333521432163324
3061.6065097598303	0.00015848931924611142
3066.9526679171863	0.00018836490894898024
3072.484127267848	0.00022387211385683424
3076.696996157992	0.0002660725059798809
3078.166364424334	0.0003162277660168379
3075.4175280475733	0.00037583740428844437
3068.8289876008403	0.0004466835921509635
3060.8714235703455	0.0005308844442309889
3049.3739020731996	0.000630957344480193
3033.4258430157965	0.0007498942093324559
3013.8841762579978	0.0008912509381337458
2993.838297419803	0.0010592537251772895
2970.8774441357714	0.0012589254117941673
2944.907747672493	0.0014962356560944345
2916.4463514212603	0.0017782794100389225
2888.301391938244	0.0021134890398366475
2861.0860068258276	0.002511886431509582
2833.2691636295717	0.0029853826189179603
2805.0400897567656	0.0035481338923357567
2776.7378089269555	0.004216965034285822
2749.3568017633243	0.0050118723362727255
2722.59809824374	0.005956621435290103
2696.0691527082595	0.00707945784384138
2669.7985140208007	0.008413951416451957
2643.7      	0.01        
2618.8484818521806	0.01188502227437019
2594.262989716692	0.014125375446227554
2570.0102090955875	0.016788040181225587
2546.1328549744367	0.01995262314968883
2522.914139100803	0.023713737056616554
2501.3046037588506	0.02818382931264455
2480.0627080992645	0.033496543915782793
2458.8795167304847	0.03981071705534969
2437.3211786183388	0.04731512589614813
2415.611470054722	0.056234132519034905
2394.0117480581202	0.06683439175686148
2372.2723713602395	0.07943282347242821
2350.455496257481	0.09440608762859228
2328.5311023123327	0.11220184543019629
2308.5386675436857	0.1333521432163324
2290.7612285988052	0.1584893192461114
2274.9409233024403	0.18836490894898023
2260.9656686082444	0.22387211385683378
2248.8400360889564	0.26607250597988086
2240.3944125360704	0.3162277660168379
2233.7244293690915	0.3758374042884443
2228.3234230256066	0.4466835921509634
2223.647905520887	0.5308844442309879
2219.392837321315	0.630957344480193
2215.415230925439	0.7498942093324559
2211.5510690551446	0.8912509381337458
2207.8842218541035	1.0592537251772898
2204.568027143127	1.2589254117941662
2202.319008487994	1.4962356560944328
2201.0822755472454	1.7782794100389228
2200.754324769418	2.1134890398366473
2201.3840025528307	2.511886431509582
2203.0693279656402	2.9853826189179573
2205.51584258239	3.548133892335753
2208.4933880093786	4.216965034285823
2212.025098138281	5.011872336272725
2216.147867757051	5.956621435290109
2220.902291505327	7.079457843841373
2227.3296216325703	8.413951416451948
2236.9      	10.0        
