# T(K)	P(bar)
3210.2      	1e-08       
3208.815085675973	1.1885022274370215e-08
3208.0167441789677	1.4125375446227554e-08
3207.5318368182598	1.6788040181225588e-08
3207.159241660696	1.9952623149688826e-08
3206.9206932099396	2.3713737056616554e-08
3206.619062419482	2.818382931264461e-08
3206.306182892873	3.3496543915782795e-08
3205.9892465183652	3.981071705534969e-08
3205.6528053130323	4.731512589614813e-08
3205.1825589181526	5.6234132519034905e-08
3204.6536997720677	6.683439175686162e-08
3204.061741712298	7.94328234724282e-08
3203.404027349148	9.440608762859226e-08
3202.6735452558155	1.1220184543019653e-07
3201.7438618366446	1.333521432163324e-07
3200.695746423913	1.584893192461114e-07
3199.4839541223287	1.883649089489802e-07
3198.0636778998232	2.2387211385683422e-07
3196.388426038606	2.6607250597988136e-07
3194.4762646112317	3.162277660168379e-07
3192.26936325774	3.7583740428844433e-07
3189.6858754567365	4.466835921509635e-07
3186.6296972955706	5.308844442309889e-07
3183.0050095700085	6.309573444801942e-07
3178.78339082009	7.498942093324558e-07
3173.810911766771	8.912509381337459e-07
3167.3396286655093	1.0592537251772896e-06
3158.1808581297546	1.2589254117941687e-06
3144.221431994445	1.4962356560944327e-06
3127.662287252979	1.7782794100389227e-06
3074.7560219082575	2.1134890398366474e-06
2985.069583118841	2.511886431509582e-06
2898.4759583368673	2.9853826189179636e-06
2887.9160853967364	3.5481338923357534e-06
2883.8765573610503	4.216965034285822e-06
2886.2477021648588	5.011872336272725e-06
2894.895166915981	5.95662143529011e-06
2905.671860745408	7.079457843841388e-06
2917.6250069338785	8.413951416451948e-06
2930.197634212921	1e-05       
2942.810196462634	1.188502227437019e-05
2954.638568115729	1.4125375446227555e-05
2962.9935571668957	1.678804018122562e-05
2970.042882406201	1.9952623149688786e-05
2977.614600963039	2.371373705661655e-05
2985.5515295521277	2.818382931264455e-05
2992.3765287137303	3.349654391578279e-05
2997.381665958509	3.981071705534977e-05
3002.501651708987	4.731512589614803e-05
3007.11466530262	5.623413251903491e-05
3010.611202445601	6.683439175686148e-05
3012.283560637933	7.943282347242821e-05
3012.185229746644	9.440608762859246e-05
3010.7553068301418	0.00011220184543019629
3007.779999934266	0.0001333521432163324
3003.122136150778	0.00015848931924611142
2997.147018210204	0.00018836490894898024
2990.409898238355	0.00022387211385683424
2982.383062414023	0.0002660725059798809
2972.6298615742844	0.0003162277660168379
2960.6652689069006	0.00037583740428844437
2945.860430961888	0.0004466835921509635
2929.015465771553	0.0005308844442309889
2910.319411810495	0.000630957344480193
2889.53626857654	0.0007498942093324559
2865.8299843129807	0.0008912509381337458
2842.4484383740237	0.0010592537251772895
2817.699330868135	0.0012589254117941673
2791.170239234901	0.0014962356560944345
2762.3339520222626	0.0017782794100389225
2730.6313431663925	0.0021134890398366475
2694.3940263340096	0.002511886431509582
2652.4357677507114	0.0029853826189179603
2603.886294425406	0.0035481338923357567
2547.8998181942998	0.004216965034285822
2485.1029214230084	0.0050118723362727255
2421.017841517632	0.005956621435290103
2361.302154724997	0.00707945784384138
2310.6200574624013	0.008413951416451957
2272.6      	0.01        
2250.4413708155666	0.01188502227437019
2236.134883579351	0.014125375446227554
2228.25289872799	0.016788040181225587
2225.322275017911	0.01995262314968883
2226.0379203701805	0.023713737056616554
2229.4010165710897	0.02818382931264455
2234.434070758634	0.033496543915782793
2240.7919533367776	0.03981071705534969
2248.0865781161233	0.04731512589614813
2255.9240180307866	0.056234132519034905
2264.185774945244	0.06683439175686148
2272.83561602783	0.07943282347242821
2281.6952212881947	0.09440608762859228
2290.53502723004	0.11220184543019629
2298.79445008813	0.1333521432163324
2306.7894742466387	0.1584893192461114
2314.3251813595734	0.18836490894898023
2321.2171656958776	0.22387211385683378
2327.2799819555216	0.26607250597988086
2331.9769649330447	0.3162277660168379
2335.946976338132	0.3758374042884443
2339.223790120837	0.4466835921509634
2341.84537532405	0.5308844442309879
2343.7365167460825	0.630957344480193
2345.1282563581867	0.7498942093324559
2346.147693946845	0.8912509381337458
2346.8451111636996	1.0592537251772898
2347.3136523645044	1.2589254117941662
2347.5463094667593	1.4962356560944328
2347.6598103710626	1.7782794100389228
2347.7385811923546	2.1134890398366473
2347.8      	2.511886431509582
2347.8      	2.9853826189179573
2347.8754950806997	3.548133892335753
2347.9534972685215	4.216965034285823
2348.0325019627658	5.011872336272725
2348.1124644626175	5.956621435290109
2348.191704858422	7.079457843841373
2348.3378981775018	8.413951416451948
2348.5      	10.0        
