# T(K)	P(bar)
3335.8      	1e-08       
3333.1071110366142	1.1885022274370215e-08
3329.8909634106535	1.4125375446227554e-08
3326.117470273554	1.6788040181225588e-08
3321.716902648419	1.9952623149688826e-08
3316.5483528820278	2.3713737056616554e-08
3310.7621859701526	2.818382931264461e-08
3304.1875693664215	3.3496543915782795e-08
3296.665032736684	3.981071705534969e-08
3288.079703604136	4.731512589614813e-08
3278.90989890398	5.6234132519034905e-08
3269.3941102480535	6.683439175686162e-08
3259.487867396766	7.94328234724282e-08
3249.399932366035	9.440608762859226e-08
3239.4376571201706	1.1220184543019653e-07
3230.218296546727	1.333521432163324e-07
3221.136184655282	1.584893192461114e-07
3211.7789648778876	1.883649089489802e-07
3201.629729960659	2.2387211385683422e-07
3189.823193033984	2.6607250597988136e-07
3176.142054616417	3.162277660168379e-07
3160.840648927889	3.7583740428844433e-07
3144.0249183179917	4.466835921509635e-07
3125.989382365194	5.308844442309889e-07
3108.1811339743904	6.309573444801942e-07
3091.5636115121283	7.498942093324558e-07
3078.3113623229106	8.912509381337459e-07
3069.7358514662037	1.0592537251772896e-06
3066.386347635496	1.2589254117941687e-06
3066.1536905332405	1.4962356560944327e-06
3066.0401896289372	1.7782794100389227e-06
3066.0385811923543	2.1134890398366474e-06
3065.862284133962	2.511886431509582e-06
3064.818987449842	2.9853826189179636e-06
3062.30866233691	3.5481338923357534e-06
3058.5576502313215	4.216965034285822e-06
3052.8148076489692	5.011872336272725e-06
3043.956396728848	5.95662143529011e-06
3029.6931254840188	7.079457843841388e-06
3008.7563569722693	8.413951416451948e-06
2981.9601455868974	1e-05       
2942.997224532817	1.188502227437019e-05
2884.1596167973166	1.4125375446227555e-05
2806.7783630617423	1.678804018122562e-05
2734.2179588676163	1.9952623149688786e-05
2301.565059705902	2.371373705661655e-05
1753.8789776280348	2.818382931264455e-05
1843.5382077462903	3.349654391578279e-05
1891.8185316305403	3.981071705534977e-05
1921.4283194750349	4.731512589614803e-05
1943.768073782424	5.623413251903491e-05
1966.0122593161277	6.683439175686148e-05
1987.0361908768714	7.943282347242821e-05
2007.3281922108674	9.440608762859246e-05
2027.9481109941707	0.00011220184543019629
2048.9528574574415	0.0001333521432163324
2070.4706353451916	0.00015848931924611142
2092.248367839125	0.00018836490894898024
2114.501566394556	0.00022387211385683424
2137.697329321939	0.0002660725059798809
2161.9217251979617	0.0003162277660168379
2187.316595011944	0.00037583740428844437
2213.360707836678	0.0004466835921509635
2240.4850692561854	0.0005308844442309889
2268.5542300725965	0.000630957344480193
2297.4980930823444	0.0007498942093324559
2327.4513036045446	0.0008912509381337458
2356.3927209584444	0.0010592537251772895
2385.4001468481174	0.0012589254117941673
2414.5359559207536	0.0014962356560944345
2443.5714621257625	0.0017782794100389225
2470.4514796095423	0.0021134890398366475
2495.078471144996	0.002511886431509582
2518.8312770109405	0.0029853826189179603
2541.3501316819475	0.0035481338923357567
2562.2193079579447	0.004216965034285822
2580.629329868534	0.0050118723362727255
2597.6032273348096	0.005956621435290103
2613.83053798511	0.00707945784384138
2629.3786216671997	0.008413951416451957
2644.2      	0.01        
2657.8952638709343	0.01188502227437019
2671.4718938626593	0.014125375446227554
2685.1520787245595	0.016788040181225587
2699.10474201892	0.01995262314968883
2713.1791006135545	0.023713737056616554
2727.3933630989704	0.02818382931264455
2742.300129695666	0.033496543915782793
2757.9761159337713	0.03981071705534969
2774.52260607431	0.04731512589614813
2791.686599487422	0.056234132519034905
2809.7466933988662	0.06683439175686148
2829.1242652064684	0.07943282347242821
2849.866278481503	0.09440608762859228
2871.947972269737	0.11220184543019629
2894.719278280358	0.1333521432163324
2919.88806855575	0.1584893192461114
2946.348441567819	0.18836490894898023
2972.880770150237	0.22387211385683378
2997.6904524758847	0.26607250597988086
3018.9881398609036	0.3162277660168379
3039.4614335339534	0.3758374042884443
3058.805193156151	0.4466835921509634
3076.583450536072	0.5308844442309879
3091.8701770308326	0.630957344480193
3104.4861473290316	0.7498942093324559
3115.261866151507	0.8912509381337458
3124.225037843392	1.0592537251772898
3131.509453595426	1.2589254117941662
3136.783014579876	1.4962356560944328
3140.9307081820807	1.7782794100389228
3144.288922924761	2.1134890398366473
3147.0851467471707	2.511886431509582
3149.653261661928	2.9853826189179573
3151.9648524209906	3.548133892335753
3154.518907129728	4.216965034285823
3157.367576547859	5.011872336272725
3160.5858297430227	5.956621435290109
3164.310128345839	7.079457843841373
3168.6300980587966	8.413951416451948
3173.3      	10.0        
