# T(K)	P(bar)
2888.7      	1e-08       
2883.468101442564	1.1885022274370215e-08
2876.9724251581542	1.4125375446227554e-08
2869.1331447290195	1.6788040181225588e-08
2859.825116392028	1.9952623149688826e-08
2848.851887657229	2.3713737056616554e-08
2836.5220279890095	2.818382931264461e-08
2822.978230179279	3.3496543915782795e-08
2808.5222747335843	3.981071705534969e-08
2793.536964704011	4.731512589614813e-08
2778.9593264627374	5.6234132519034905e-08
2764.3498938458233	6.683439175686162e-08
2749.8469062407394	7.94328234724282e-08
2735.720069111774	9.440608762859226e-08
2722.1715202597097	1.1220184543019653e-07
2710.6279511383386	1.333521432163324e-07
2700.3042711312137	1.584893192461114e-07
2691.239962726776	1.883649089489802e-07
2683.4867422755	2.2387211385683422e-07
2676.945282626937	2.6607250597988136e-07
2671.6394397425497	3.162277660168379e-07
2666.73872651548	3.7583740428844433e-07
2662.1739803963183	4.466835921509635e-07
2657.888801408229	5.308844442309889e-07
2653.948923445662	6.309573444801942e-07
2650.2807030097183	7.498942093324558e-07
2646.5958384498294	8.912509381337459e-07
2642.863295884354	1.0592537251772896e-06
2639.081562167935	1.2589254117941687e-06
2635.359048531852	1.4962356560944327e-06
2631.4496710757935	1.7782794100389227e-06
2627.3937779975677	2.1134890398366474e-06
2623.1942790283	2.511886431509582e-06
2618.780331518561	2.9853826189179636e-06
2614.245790238718	3.5481338923357534e-06
2609.2691802775857	4.216965034285822e-06
2603.82735671811	5.011872336272725e-06
2597.8903785279817	5.95662143529011e-06
2591.471906467809	7.079457843841388e-06
2584.4566838349247	8.413951416451948e-06
2576.7358507734302	1e-05       
2568.272434458674	1.188502227437019e-05
2559.0164792634273	1.4125375446227555e-05
2549.0217260059567	1.678804018122562e-05
2538.27877678995	1.9952623149688786e-05
2526.589735712057	2.371373705661655e-05
2513.8969408957446	2.818382931264455e-05
2500.1798327774222	3.349654391578279e-05
2485.780437934751	3.981071705534977e-05
2470.2024454493585	4.731512589614803e-05
2453.3615300451665	5.623413251903491e-05
2435.2730389498547	6.683439175686148e-05
2416.3196461034267	7.943282347242821e-05
2397.9615599004314	9.440608762859246e-05
2379.3965821756874	0.00011220184543019629
2360.499285430221	0.0001333521432163324
2341.2218121464634	0.00015848931924611142
2322.9033584602307	0.00018836490894898024
2306.7933633975954	0.00022387211385683424
2293.434168032029	0.0002660725059798809
2282.6176449264713	0.0003162277660168379
2273.290942452051	0.00037583740428844437
2266.0823040809196	0.0004466835921509635
2260.9599179954603	0.0005308844442309889
2257.329322715366	0.000630957344480193
2254.9947135909406	0.0007498942093324559
2254.0336480126884	0.0008912509381337458
2255.2611070646103	0.0010592537251772895
2258.1516402753014	0.0012589254117941673
2262.524713121889	0.0014962356560944345
2268.224798797996	0.0017782794100389225
2275.340097543702	0.0021134890398366475
2284.2507533742228	0.002511886431509582
2294.8196137537325	0.0029853826189179603
2307.192646212613	0.0035481338923357567
2321.4733352878193	0.004216965034285822
2336.4509802320276	0.0050118723362727255
2351.7235467864125	0.005956621435290103
2367.051574337392	0.00707945784384138
2382.1008255439997	0.008413951416451957
2396.6      	0.01        
2410.4491432402706	0.01188502227437019
2423.798139704779	0.014125375446227554
2436.243099634118	0.016788040181225587
2447.4846780245543	0.01995262314968883
2457.3446806558236	0.023713737056616554
2466.0662522545117	0.02818382931264455
2474.3907905085234	0.033496543915782793
2482.385771929638	0.03981071705534969
2490.1944438972846	0.04731512589614813
2498.1102582110943	0.056234132519034905
2506.4495321206628	0.06683439175686148
2515.2624628857184	0.07943282347242821
2524.5129686780306	0.09440608762859228
2534.1833505857494	0.11220184543019629
2544.140972536157	0.1333521432163324
2554.366441589667	0.1584893192461114
2564.74717705735	0.18836490894898023
2575.24605530589	0.22387211385683378
2585.93575765842	0.26607250597988086
2596.4940699304516	0.3162277660168379
2607.2919502391387	0.3758374042884443
2618.466163750628	0.4466835921509634
2630.2358354936678	0.5308844442309879
2642.8434449738825	0.630957344480193
2656.015299624009	0.7498942093324559
2669.9480298325757	0.8912509381337458
2684.6677424323334	1.0592537251772898
2700.2693178797904	1.2589254117941662
2716.7879721399067	1.4962356560944328
2733.877902375958	1.7782794100389228
2751.0949563562112	2.1134890398366473
2768.121739692458	2.511886431509582
2784.8947402294666	2.9853826189179573
2799.317580090843	3.548133892335753
2812.7805465745564	4.216965034285823
2825.3752944148428	5.011872336272725
2837.2200958412163	5.956621435290109
2848.1552704622522	7.079457843841373
2858.1944324488554	8.413951416451948
2868.8      	10.0        
