# T(K)	P(bar)
3260.2      	1e-08       
3259.5075428379864	1.1885022274370215e-08
3258.697740852663	1.4125375446227554e-08
3257.7627757274754	1.6788040181225588e-08
3256.669036077279	1.9952623149688826e-08
3255.317261522992	2.3713737056616554e-08
3253.7953120974084	2.818382931264461e-08
3251.9401888036737	3.3496543915782795e-08
3249.7693488877408	3.981071705534969e-08
3247.301100315873	4.731512589614813e-08
3244.3228731483014	5.6234132519034905e-08
3240.9309271061484	6.683439175686162e-08
3237.016756558011	7.94328234724282e-08
3232.5064167050505	9.440608762859226e-08
3227.332453286832	1.1220184543019653e-07
3221.44445829875	1.333521432163324e-07
3214.787245123449	1.584893192461114e-07
3207.195010755559	1.883649089489802e-07
3198.4980827370428	2.2387211385683422e-07
3188.526345467892	2.6607250597988136e-07
3177.495284160693	3.162277660168379e-07
3165.232519142311	3.7583740428844433e-07
3151.6896002319663	4.466835921509635e-07
3136.875653576586	5.308844442309889e-07
3121.27373684482	6.309573444801942e-07
3105.2290835964072	7.498942093324558e-07
3088.3507331694136	8.912509381337459e-07
3071.7982947011155	1.0592537251772896e-06
3057.3264833511316	1.2589254117941687e-06
3045.84873297321	1.4962356560944327e-06
3036.6208591830837	1.7782794100389227e-06
3029.6922224969594	2.1134890398366474e-06
3025.1879965962257	2.511886431509582e-06
3022.940896045813	2.9853826189179636e-06
3021.3146033053067	3.5481338923357534e-06
3020.532513657393	4.216965034285822e-06
3021.5350745850938	5.011872336272725e-06
3024.29943140188	5.95662143529011e-06
3025.5672777347536	7.079457843841388e-06
3025.7      	8.413951416451948e-06
3025.5583257506823	1e-05       
3024.4173690786924	1.188502227437019e-05
3021.106384505115	1.4125375446227555e-05
3014.391159660252	1.678804018122562e-05
3003.903405589522	1.9952623149688786e-05
2989.6886151984363	2.371373705661655e-05
2969.1841765202626	2.818382931264455e-05
2937.440523676568	3.349654391578279e-05
2881.2289823121305	3.981071705534977e-05
2247.4606783909057	4.731512589614803e-05
1803.5922131629907	5.623413251903491e-05
1889.584969589146	6.683439175686148e-05
1953.453125315344	7.943282347242821e-05
1982.0974485447653	9.440608762859246e-05
2008.682976700804	0.00011220184543019629
2034.9992860875611	0.0001333521432163324
2060.4095672698027	0.00015848931924611142
2085.174858734023	0.00018836490894898024
2109.7882287663283	0.00022387211385683424
2135.0851473719345	0.0002660725059798809
2161.271951879711	0.0003162277660168379
2188.596351798512	0.00037583740428844437
2216.5007583964407	0.0004466835921509635
2245.5500175037905	0.0005308844442309889
2276.037025941169	0.000630957344480193
2308.0850243170717	0.0007498942093324559
2341.7223195559054	0.0008912509381337458
2375.317869837341	0.0010592537251772895
2410.4382894853775	0.0012589254117941673
2446.6418135727486	0.0014962356560944345
2483.32399398998	0.0017782794100389225
2518.900487718512	0.0021134890398366475
2552.290957570722	0.002511886431509582
2584.0115789225647	0.0029853826189179603
2613.6568527872973	0.0035481338923357567
2641.0435446594734	0.004216965034285822
2663.978063480293	0.0050118723362727255
2684.107508568703	0.005956621435290103
2702.487725028914	0.00707945784384138
2719.4314590675995	0.008413951416451957
2735.3      	0.01        
2749.379962294275	0.01188502227437019
2763.236146357387	0.014125375446227554
2776.9511808155153	0.016788040181225587
2790.6096392272116	0.01995262314968883
2804.127384770081	0.023713737056616554
2817.3100815671564	0.02818382931264455
2830.685681329685	0.033496543915782793
2844.2347113398773	0.03981071705534969
2857.9686459220543	0.04731512589614813
2871.605791373568	0.056234132519034905
2885.3487772245685	0.06683439175686148
2899.749069761	0.07943282347242821
2914.8242993628155	0.09440608762859228
2930.428320652877	0.11220184543019629
2945.4805398802364	0.1333521432163324
2960.7350193301113	0.1584893192461114
2975.8765046543854	0.18836490894898023
2990.5706534919327	0.22387211385683378
3004.3715378724373	0.26607250597988086
3017.063704150322	0.3162277660168379
3029.612374733979	0.3758374042884443
3041.9167211213394	0.4466835921509634
3053.8313560569595	0.5308844442309879
3064.8630143521473	0.630957344480193
3074.828738675867	0.7498942093324559
3083.935094625924	0.8912509381337458
3092.1008526494425	1.0592537251772898
3099.327656748098	1.2589254117941662
3104.9114272022216	1.4962356560944328
3109.429760037395	1.7782794100389228
3113.0275041171153	2.1134890398366473
3115.720574224529	2.511886431509582
3117.5664068195106	2.9853826189179573
3118.5814360490963	3.548133892335753
3119.27448087965	4.216965034285823
3119.6650039255314	5.011872336272725
3119.8124644626178	5.956621435290109
3119.891704858422	7.079457843841373
3119.8310509112493	8.413951416451948
3119.8      	10.0        
