# T(K)	P(bar)
2904.5      	1e-08       
2897.4984886951966	1.1885022274370215e-08
2889.4869101897852	1.4125375446227554e-08
2879.79053300223	1.6788040181225588e-08
2867.9360163203837	1.9952623149688826e-08
2854.1002061765057	2.3713737056616554e-08
2838.6424177886975	2.818382931264461e-08
2822.085421938353	3.3496543915782795e-08
2804.974688732551	3.981071705534969e-08
2787.863917518464	4.731512589614813e-08
2771.5620424959643	5.6234132519034905e-08
2755.9485649162148	6.683439175686162e-08
2740.920059382851	7.94328234724282e-08
2726.772492284659	9.440608762859226e-08
2713.80458868994	1.1220184543019653e-07
2703.4231238425327	1.333521432163324e-07
2694.6106514953435	1.584893192461114e-07
2687.0922465972517	1.883649089489802e-07
2680.7269723470554	2.2387211385683422e-07
2675.38212117079	2.6607250597988136e-07
2670.941883313608	3.162277660168379e-07
2666.8489387628997	3.7583740428844433e-07
2663.0449836635985	4.466835921509635e-07
2659.470593182912	5.308844442309889e-07
2656.1610956943555	6.309573444801942e-07
2653.045279157207	7.498942093324558e-07
2649.953993607305	8.912509381337459e-07
2646.8809626299035	1.0592537251772896e-06
2643.817968473279	1.2589254117941687e-06
2640.7158737765435	1.4962356560944327e-06
2637.547774786422	1.7782794100389227e-06
2634.163846344049	2.1134890398366474e-06
2630.5222798792443	2.511886431509582e-06
2626.670107507108	2.9853826189179636e-06
2622.5232656422163	3.5481338923357534e-06
2617.8831693516718	4.216965034285822e-06
2612.692360643641	5.011872336272725e-06
2606.8903785279817	5.95662143529011e-06
2600.471906467809	7.079457843841388e-06
2593.387734746174	8.413951416451948e-06
2585.588626023658	1e-05       
2577.0193192737383	1.188502227437019e-05
2567.616479263427	1.4125375446227555e-05
2557.6217260059566	1.678804018122562e-05
2546.941338656688	1.9952623149688786e-05
2535.4130100252864	2.371373705661655e-05
2522.99997204587	2.818382931264455e-05
2509.6939611553416	3.349654391578279e-05
2496.2185916501685	3.981071705534977e-05
2481.911986824537	4.731512589614803e-05
2466.736359281197	5.623413251903491e-05
2450.791709692523	6.683439175686148e-05
2434.6255804999814	7.943282347242821e-05
2419.0388029407027	9.440608762859246e-05
2403.8373443602563	0.00011220184543019629
2389.2085712219787	0.0001333521432163324
2375.2639989509894	0.00015848931924611142
2362.6061833137214	0.00018836490894898024
2351.4919747569625	0.00022387211385683424
2341.5525242480235	0.0002660725059798809
2332.7761671612625	0.0003162277660168379
2325.050760041977	0.00037583740428844437
2319.2373420007416	0.0004466835921509635
2315.163093154311	0.0005308844442309889
2312.403051328494	0.000630957344480193
2310.848678397735	0.0007498942093324559
2310.608412003172	0.0008912509381337458
2312.232020907143	0.0010592537251772895
2315.1994777162527	0.0012589254117941673
2319.399729997072	0.0014962356560944345
2324.6881589582636	0.0017782794100389225
2330.854751204542	0.0021134890398366475
2338.230032190537	0.002511886431509582
2346.4627226911684	0.0029853826189179603
2355.318950929099	0.0035481338923357567
2364.5764248428445	0.004216965034285822
2374.0154615003926	0.0050118723362727255
2383.531294215802	0.005956621435290103
2393.0423820111964	0.00707945784384138
2402.3977404803995	0.008413951416451957
2411.5      	0.01        
2419.732546259494	0.01188502227437019
2427.291827336574	0.014125375446227554
2434.022447726103	0.016788040181225587
2439.828752899176	0.01995262314968883
2444.6792380645584	0.023713737056616554
2448.4712509662195	0.02818382931264455
2451.692808240926	0.033496543915782793
2454.3198976306244	0.03981071705534969
2456.3651814043856	0.04731512589614813
2458.011043786465	0.056234132519034905
2459.320114806703	0.06683439175686148
2460.449669717516	0.07943282347242821
2461.50484634577	0.09440608762859228
2462.6351442586974	0.11220184543019629
2463.8701981440195	0.1333521432163324
2465.1744659623055	0.1584893192461114
2466.5885218632798	0.18836490894898023
2468.1042914239697	0.22387211385683378
2469.6199954888802	0.26607250597988086
2471.1589883110146	0.3162277660168379
2472.669403270098	0.3758374042884443
2474.2022294828453	0.4466835921509634
2475.8249273803794	0.5308844442309879
2477.558473683909	0.630957344480193
2479.5255685478155	0.7498942093324559
2481.608773656481	0.8912509381337458
2483.7530002366475	1.0592537251772898
2485.918320492369	1.2589254117941662
2487.934682045247	1.4962356560944328
2489.775638534446	1.7782794100389228
2491.39446146238	2.1134890398366473
2492.737715866038	2.511886431509582
2493.7810125501583	2.9853826189179573
2494.554950806997	3.548133892335753
2495.120983611129	4.216965034285823
2495.5300078510627	5.011872336272725
2495.837393387853	5.956621435290109
2496.075114575266	7.079457843841373
2496.3068472662526	8.413951416451948
2496.5      	10.0        
