# T(K)	P(bar)
2599.7      	1e-08       
2600.777155585354	1.1885022274370215e-08
2602.030764136793	1.4125375446227554e-08
2603.304489545221	1.6788040181225588e-08
2604.7211695061387	1.9952623149688826e-08
2607.186170163956	2.3713737056616554e-08
2609.366563063628	2.818382931264461e-08
2611.9443539641443	3.3496543915782795e-08
2614.9075348163456	3.981071705534969e-08
2618.169691714578	4.731512589614813e-08
2621.8532884744695	5.6234132519034905e-08
2626.197916174298	6.683439175686162e-08
2630.9215017296915	7.94328234724282e-08
2636.024231728851	9.440608762859226e-08
2641.660933027122	1.1220184543019653e-07
2647.316507160411	1.333521432163324e-07
2653.3957347204955	1.584893192461114e-07
2659.6265634387278	1.883649089489802e-07
2665.8652117101888	2.2387211385683422e-07
2672.1673496642925	2.6607250597988136e-07
2677.752357919653	3.162277660168379e-07
2683.0674008329725	3.7583740428844433e-07
2688.046465500251	4.466835921509635e-07
2692.6009746199356	5.308844442309889e-07
2696.4620550232517	6.309573444801942e-07
2700.1856650113514	7.498942093324558e-07
2704.665241259807	8.912509381337459e-07
2713.1095943718324	1.0592537251772896e-06
2729.2463292595567	1.2589254117941687e-06
2741.964917516172	1.4962356560944327e-06
2752.555727496048	1.7782794100389227e-06
2762.213999505473	2.1134890398366474e-06
2771.832016167928	2.511886431509582e-06
2782.505743782388	2.9853826189179636e-06
2781.492078708805	3.5481338923357534e-06
2823.683825743054	4.216965034285822e-06
2677.5839417785123	5.011872336272725e-06
2200.226765134836	5.95662143529011e-06
1583.1025626085584	7.079457843841388e-06
1641.3672761539588	8.413951416451948e-06
1713.3231119199272	1e-05       
1742.5761521720447	1.188502227437019e-05
1774.4882669910478	1.4125375446227555e-05
1801.5053343901486	1.678804018122562e-05
1827.2202922900453	1.9952623149688786e-05
1852.4848943268587	2.371373705661655e-05
1877.5291437678097	2.818382931264455e-05
1902.6638057314253	3.349654391578279e-05
1926.4574581719887	3.981071705534977e-05
1950.1939464821673	4.731512589614803e-05
1974.2079098490133	5.623413251903491e-05
1998.7532175199399	6.683439175686148e-05
2023.7589543005213	7.943282347242821e-05
2047.764516264562	9.440608762859246e-05
2072.18848008021	0.00011220184543019629
2097.0414289423566	0.0001333521432163324
2122.345244314499	0.00015848931924611142
2147.4250156703283	0.00018836490894898024
2172.478572705316	0.00022387211385683424
2198.5073000359316	0.0002660725059798809
2225.692917444065	0.0003162277660168379
2254.1029981973925	0.00037583740428844437
2282.162429276421	0.0004466835921509635
2311.894594732737	0.0005308844442309889
2342.98651738642	0.000630957344480193
2374.9428803019728	0.0007498942093324559
2406.9783995770526	0.0008912509381337458
2438.3665695506525	0.0010592537251772895
2468.3044719662153	0.0012589254117941673
2496.661074047035	0.0014962356560944345
2523.2135161135207	0.0017782794100389225
2546.219648724638	0.0021134890398366475
2566.183960983636	0.002511886431509582
2584.709544389288	0.0029853826189179603
2602.2571691283156	0.0035481338923357567
2619.423647879436	0.004216965034285822
2635.1033699304044	0.0050118723362727255
2649.788786375115	0.005956621435290103
2663.774831444566	0.00707945784384138
2677.0340488047996	0.008413951416451957
2689.6      	0.01        
2701.1409527002256	0.01188502227437019
2712.538870578529	0.014125375446227554
2723.74130381603	0.016788040181225587
2734.774883607972	0.01995262314968883
2745.748112342771	0.023713737056616554
2756.5328153181395	0.02818382931264455
2767.532053026231	0.033496543915782793
2778.7594369684357	0.03981071705534969
2790.2484040495397	0.04731512589614813
2801.6910663249478	0.056234132519034905
2813.1360619620004	0.06683439175686148
2824.800060608452	0.07943282347242821
2836.666210847538	0.09440608762859228
2848.7316739414587	0.11220184543019629
2860.3874949841834	0.1333521432163324
2872.2128721335557	0.1584893192461114
2884.208174906238	0.18836490894898023
2896.366362067963	0.22387211385683378
2908.651542383557	0.26607250597988086
2920.2424123326114	0.3162277660168379
2931.4939926886227	0.3758374042884443
2942.2542686902093	0.4466835921509634
2952.3450848455673	0.5308844442309879
2961.170411481718	0.630957344480193
2968.638593980563	0.7498942093324559
2975.0681658119674	0.8912509381337458
2980.430185667245	1.0592537251772898
2984.777480738553	1.2589254117941662
2987.8020230678703	1.4962356560944328
2989.9952592765717	1.7782794100389228
2991.578717885317	2.1134890398366473
2992.646286686793	2.511886431509582
2993.288315415482	2.9853826189179573
2993.6774754034986	3.548133892335753
2993.8534972685216	4.216965034285823
2993.932501962766	5.011872336272725
2994.0      	5.956621435290109
2994.0      	7.079457843841373
2994.0689490887507	8.413951416451948
2994.1      	10.0        
