# T(K)	P(bar)
2798.6      	1e-08       
2787.6745647771195	1.1885022274370215e-08
2778.7059135160894	1.4125375446227554e-08
2770.838532183284	1.6788040181225588e-08
2763.4587664994956	1.9952623149688826e-08
2756.779409878313	2.3713737056616554e-08
2750.9324203652823	2.818382931264461e-08
2745.4051091788388	3.3496543915782795e-08
2740.155632664256	3.981071705534969e-08
2735.120187349165	4.731512589614813e-08
2730.3393490012204	5.6234132519034905e-08
2725.6745694748647	6.683439175686162e-08
2720.963062842234	7.94328234724282e-08
2716.237065138952	9.440608762859226e-08
2711.576544527139	1.1220184543019653e-07
2707.238021904342	1.333521432163324e-07
2703.0553257476718	1.584893192461114e-07
2698.98810035979	1.883649089489802e-07
2695.063294447232	2.2387211385683422e-07
2691.393695132184	2.6607250597988136e-07
2687.9172763002166	3.162277660168379e-07
2684.4040448866094	3.7583740428844433e-07
2680.814872189456	4.466835921509635e-07
2677.1092493518995	5.308844442309889e-07
2673.3269665078356	6.309573444801942e-07
2669.3488629043695	7.498942093324558e-07
2665.0481445029845	8.912509381337459e-07
2660.424703169055	1.0592537251772896e-06
2655.490546404574	1.2589254117941687e-06
2650.216985420124	1.4962356560944327e-06
2644.574032541347	1.7782794100389227e-06
2638.513504611642	2.1134890398366474e-06
2632.063989788677	2.511886431509582e-06
2625.322688137439	2.9853826189179636e-06
2618.556432898427	3.5481338923357534e-06
2611.371256758986	4.216965034285822e-06
2603.782305686204	5.011872336272725e-06
2595.791231425161	5.95662143529011e-06
2587.470989865678	7.079457843841388e-06
2578.8087529711574	8.413951416451948e-06
2569.5385805277524	1e-05       
2559.5412826093184	1.188502227437019e-05
2548.699136665601	1.4125375446227555e-05
2537.3769552411227	1.678804018122562e-05
2525.377786922143	1.9952623149688786e-05
2512.3911812704223	2.371373705661655e-05
2498.346634985319	2.818382931264455e-05
2483.262172305023	3.349654391578279e-05
2467.70774579048	3.981071705534977e-05
2451.353760393724	4.731512589614803e-05
2434.3015027229317	5.623413251903491e-05
2416.799060559532	6.683439175686148e-05
2399.5976620098327	7.943282347242821e-05
2384.010393025155	9.440608762859246e-05
2369.136165064669	0.00011220184543019629
2355.271428383617	0.0001333521432163324
2342.731576786209	0.00015848931924611142
2332.4323603360094	0.00018836490894898024
2324.6195542993673	0.00022387211385683424
2318.8197748460116	0.0002660725059798809
2315.0726994299903	0.0003162277660168379
2313.339878393284	0.00037583740428844437
2314.2700252798813	0.0004466835921509635
2317.2541027054976	0.0005308844442309889
2321.9655917371447	0.000630957344480193
2328.1909696702087	0.0007498942093324559
2335.639227901665	0.0008912509381337458
2344.1342873042217	0.0010592537251772895
2353.3638322039737	0.0012589254117941673
2363.1057226505304	0.0014962356560944345
2373.08917170395	0.0017782794100389225
2382.73435444813	0.0021134890398366475
2391.950753374223	0.002511886431509582
2400.954772194644	0.0029853826189179603
2409.5128360172243	0.0035481338923357567
2417.3863550522933	0.004216965034285822
2424.1731004176377	0.0050118723362727255
2430.192252570611	0.005956621435290103
2435.6106728294567	0.00707945784384138
2440.469696694	0.008413951416451957
2444.9      	0.01        
2449.1316826567495	0.01188502227437019
2453.4660465682596	0.014125375446227554
2457.9843255445344	0.016788040181225587
2462.7966834646822	0.01995262314968883
2468.0447493813253	0.023713737056616554
2473.7675796347175	0.02818382931264455
2479.924796419324	0.033496543915782793
2486.4535114847345	0.03981071705534969
2493.3000545233494	0.04731512589614813
2500.2753760473997	0.056234132519034905
2507.42941731396	0.06683439175686148
2514.6899703085746	0.07943282347242821
2521.9815012475065	0.09440608762859228
2529.3042760036797	0.11220184543019629
2536.483026712113	0.1333521432163324
2544.0175096650555	0.1584893192461114
2551.9687512516366	0.18836490894898023
2560.4417638819205	0.22387211385683378
2569.6157621695393	0.26607250597988086
2579.4375251904953	0.3162277660168379
2589.634801665945	0.3758374042884443
2600.044603112636	0.4466835921509634
2610.5393403104404	0.5308844442309879
2620.8618205723665	0.630957344480193
2630.065058465169	0.7498942093324559
2638.208323100341	0.8912509381337458
2645.0445931885943	1.0592537251772898
2650.386582314889	1.2589254117941662
2653.5662293790433	1.4962356560944328
2655.4363970501945	1.7782794100389228
2656.392905961772	2.1134890398366473
2656.6451424924526	2.511886431509582
2656.404381719194	2.9853826189179573
2655.947029515802	3.548133892335753
2655.372021851829	4.216965034285823
2654.6749803723437	5.011872336272725
2653.85042644859	5.956621435290109
2652.8995416989346	7.079457843841373
2651.7657636687377	8.413951416451948
2650.5      	10.0        
