# T(K)	P(bar)
2787.2      	1e-08       
2778.659695001833	1.1885022274370215e-08
2772.7054484422843	1.4125375446227554e-08
2768.151102909902	1.6788040181225588e-08
2764.0886249104437	1.9952623149688826e-08
2760.510398149096	2.3713737056616554e-08
2757.390624194817	2.818382931264461e-08
2754.5041003126375	3.3496543915782795e-08
2751.7862837765147	3.981071705534969e-08
2749.1482950028408	4.731512589614813e-08
2746.6403142301483	5.6234132519034905e-08
2744.2235275620133	6.683439175686162e-08
2741.704684563229	7.94328234724282e-08
2739.0378841355746	9.440608762859226e-08
2736.2184312054314	1.1220184543019653e-07
2733.3519073296548	1.333521432163324e-07
2730.359579323758	1.584893192461114e-07
2727.2867182806363	1.883649089489802e-07
2724.191417152061	2.2387211385683422e-07
2721.160009022239	2.6607250597988136e-07
2718.3008716246227	3.162277660168379e-07
2715.463235909288	3.7583740428844433e-07
2712.646098405021	4.466835921509635e-07
2709.84216098576	5.308844442309889e-07
2707.084246411963	6.309573444801942e-07
2704.3107512414863	7.498942093324558e-07
2701.443532396674	8.912509381337459e-07
2698.4325922420035	1.0592537251772896e-06
2695.2088668969427	1.2589254117941687e-06
2691.9516674653705	1.4962356560944327e-06
2688.5683436732334	1.7782794100389227e-06
2685.063846344049	2.1134890398366474e-06
2681.4771373867916	2.511886431509582e-06
2677.865725787914	2.9853826189179636e-06
2674.402721368514	3.5481338923357534e-06
2670.892622916536	4.216965034285822e-06
2667.3374116755476	5.011872336272725e-06
2663.7515636448297	5.95662143529011e-06
2660.264986229427	7.079457843841388e-06
2656.797291006213	8.413951416451948e-06
2653.2276615104643	1e-05       
2649.5783507464826	1.188502227437019e-05
2645.8617772180305	1.4125375446227555e-05
2642.0356607366552	1.678804018122562e-05
2638.171906663103	1.9952623149688786e-05
2634.1632452373524	2.371373705661655e-05
2629.9666573486234	2.818382931264455e-05
2625.531712840056	3.349654391578279e-05
2621.0655903754846	3.981071705534977e-05
2616.3787764507847	4.731512589614803e-05
2611.4254439863207	5.623413251903491e-05
2606.2071160068917	6.683439175686148e-05
2600.871497012309	7.943282347242821e-05
2595.3455139194584	9.440608762859246e-05
2589.564741194838	0.00011220184543019629
2583.456785619206	0.0001333521432163324
2576.950782061386	0.00015848931924611142
2570.346704337594	0.00018836490894898024
2563.5098982383547	0.00022387211385683424
2556.353316854019	0.0002660725059798809
2548.853241049523	0.0003162277660168379
2540.9610336570886	0.00037583740428844437
2533.0547851210085	0.0004466835921509635
2524.888619430154	0.0005308844442309889
2516.3889852555953	0.000630957344480193
2507.5668863146925	0.0007498942093324559
2498.5168521194823	0.0008912509381337458
2489.4464333162327	0.0010592537251772895
2479.879680118879	0.0012589254117941673
2469.8692942246525	0.0014962356560944345
2459.4741884563173	0.0017782794100389225
2448.88029921271	0.0021134890398366475
2438.1285254420904	0.002511886431509582
2426.972435749743	0.0029853826189179603
2415.5195836111357	0.0035481338923357567
2403.861456806391	0.004216965034285822
2392.160171693728	0.0050118723362727255
2380.148114653129	0.005956621435290103
2367.763540001847	0.00707945784384138
2355.0687060412	0.008413951416451957
2342.1      	0.01        
2329.7127107684246	0.01188502227437019
2317.2946177794056	0.014125375446227554
2305.0214719114456	0.016788040181225587
2292.989255261016	0.01995262314968883
2281.2208650236944	0.023713737056616554
2269.7350751256945	0.02818382931264455
2258.274129866642	0.033496543915782793
2246.9236281427907	0.03981071705534969
2235.7145221997503	0.04731512589614813
2224.898855117515	0.056234132519034905
2214.3927813184455	0.06683439175686148
2204.256996540617	0.07943282347242821
2194.5088060609532	0.09440608762859228
2184.9276319950936	0.11220184543019629
2175.35596438385	0.1333521432163324
2165.462844519111	0.1584893192461114
2155.470250899475	0.18836490894898023
2145.466052060836	0.22387211385683378
2135.3347669953787	0.26607250597988086
2125.2436265628526	0.3162277660168379
2115.2203044577655	0.3758374042884443
2105.446846051213	0.4466835921509634
2095.973123379749	0.5308844442309879
2086.517416269588	0.630957344480193
2077.036733408412	0.7498942093324559
2067.6172114272313	0.8912509381337458
2058.29451750181	1.0592537251772898
2048.967557784341	1.2589254117941662
2039.8939307963892	1.4962356560944328
2031.3404799252096	1.7782794100389228
2023.2962055339708	2.1134890398366473
2015.7542747735827	2.511886431509582
2008.5314515758278	2.9853826189179573
2002.2848984633247	3.548133892335753
1996.394699397936	4.216965034285823
1990.887372420235	5.011872336272725
1985.7770611681844	5.956621435290109
1981.1811182115173	7.079457843841373
1977.252545562459	8.413951416451948
1972.9      	10.0        
