# T(K)	P(bar)
2875.9      	1e-08       
2867.975212479178	1.1885022274370215e-08
2858.208637737231	1.4125375446227554e-08
2846.516982366225	1.6788040181225588e-08
2832.8507079452575	1.9952623149688826e-08
2817.345058646084	2.3713737056616554e-08
2798.7925731932555	2.818382931264461e-08
2777.2059883493744	3.3496543915782795e-08
2754.2195679151723	3.981071705534969e-08
2731.9178231473697	4.731512589614813e-08
2712.167474562418	5.6234132519034905e-08
2691.740591338566	6.683439175686162e-08
2672.9670262320424	7.94328234724282e-08
2657.1466901965277	9.440608762859226e-08
2644.8486799302477	1.1220184543019653e-07
2636.0166874481247	1.333521432163324e-07
2628.87447854348	1.584893192461114e-07
2623.0532444461396	1.883649089489802e-07
2618.347279109128	2.2387211385683422e-07
2614.5979058959274	2.6607250597988136e-07
2611.7738210401735	3.162277660168379e-07
2609.26936325774	3.7583740428844433e-07
2606.986990198159	4.466835921509635e-07
2604.813728788608	5.308844442309889e-07
2602.6073971295705	6.309573444801942e-07
2600.375327388975	7.498942093324558e-07
2597.922609975412	8.912509381337459e-07
2595.1325922420033	1.0592537251772896e-06
2591.917968473279	1.2589254117941687e-06
2588.8158737765434	1.4962356560944327e-06
2585.8870162706735	1.7782794100389227e-06
2583.0496582675937	2.1134890398366474e-06
2580.2965674169805	2.511886431509582e-06
2577.6481989111367	2.9853826189179636e-06
2575.4106426597086	3.5481338923357534e-06
2573.309071018443	4.216965034285822e-06
2571.2874509308594	5.011872336272725e-06
2569.313317359797	5.95662143529011e-06
2567.4907882562916	7.079457843841388e-06
2565.852069136233	8.413951416451948e-06
2564.3499545040945	1e-05       
2563.0016361129833	1.188502227437019e-05
2561.8033649194376	1.4125375446227555e-05
2560.7101887819017	1.678804018122562e-05
2559.8118194658828	1.9952623149688786e-05
2558.989085622568	2.371373705661655e-05
2558.2145439297747	2.818382931264455e-05
2557.487048986907	3.349654391578279e-05
2556.640025760868	3.981071705534977e-05
2555.839143680457	4.731512589614803e-05
2554.9450887972644	5.623413251903491e-05
2553.848074210704	6.683439175686148e-05
2552.494260435959	7.943282347242821e-05
2550.8966082265088	9.440608762859246e-05
2549.005110280877	0.00011220184543019629
2546.8032142493257	0.0001333521432163324
2544.2610680753887	0.00015848931924611142
2541.273509105102	0.00018836490894898024
2537.8073631344305	0.00022387211385683424
2533.9373384560104	0.0002660725059798809
2529.624433295626	0.0003162277660168379
2524.7773456374994	0.00037583740428844437
2519.5840255206626	0.0004466835921509635
2513.9051552571846	0.0005308844442309889
2507.8475439562912	0.000630957344480193
2501.4972095380954	0.0007498942093324559
2494.929928086704	0.0008912509381337458
2488.3944646769473	0.0010592537251772895
2481.557532244642	0.0012589254117941673
2474.581617035231	0.0014962356560944345
2467.6321344685593	0.0017782794100389225
2460.9121300976144	0.0021134890398366475
2454.2818084858554	0.002511886431509582
2447.771995109231	0.0029853826189179603
2441.4963363505876	0.0035481338923357567
2435.480728403196	0.004216965034285822
2429.6300858468644	0.0050118723362727255
2423.807747429389	0.005956621435290103
2418.070511573152	0.00707945784384138
2412.4969149364	0.008413951416451957
2407.1      	0.01        
2402.021980811901	0.01188502227437019
2397.5982059264684	0.014125375446227554
2394.0228577278185	0.016788040181225587
2391.428277737975	0.01995262314968883
2389.8379547329314	0.023713737056616554
2389.7702343951296	0.02818382931264455
2391.3020825802355	0.033496543915782793
2394.4228603724755	0.03981071705534969
2399.0607256175435	0.04731512589614813
2405.6441751458606	0.056234132519034905
2414.7696469273656	0.06683439175686148
2426.403424041745	0.07943282347242821
2440.5855962306186	0.09440608762859228
2457.2776837523415	0.11220184543019629
2477.578881992319	0.1333521432163324
2501.3428887022224	0.1584893192461114
2527.973201423903	0.18836490894898023
2556.981920508011	0.22387211385683378
2587.7746451951493	0.26607250597988086
2619.965805115761	0.3162277660168379
2653.2391266390623	0.3758374042884443
2687.2780453553146	0.4466835921509634
2722.3279544246743	0.5308844442309879
2760.308377983821	0.630957344480193
2801.040523251284	0.7498942093324559
2845.190095890422	0.8912509381337458
2892.760857382396	1.0592537251772898
2943.535258368378	1.2589254117941662
2993.5565353532384	1.4962356560944328
3041.5843263483534	1.7782794100389228
3086.663775524933	2.1134890398366473
3127.445767773596	2.511886431509582
3162.7573478515087	2.9853826189179573
3187.633920904602	3.548133892335753
3207.215901806192	4.216965034285823
3222.2102904893113	5.011872336272725
3233.359195023428	5.956621435290109
3240.728551833257	7.079457843841373
3245.0853526150427	8.413951416451948
3249.2      	10.0        
