# T(K)	P(bar)
889.4       	1e-08       
889.7077587386726	1.1885022274370215e-08
890.0190033263043	1.4125375446227554e-08
890.4017958180883	1.6788040181225588e-08
890.8815166786075	1.9952623149688826e-08
891.3586135801205	2.3713737056616554e-08
891.9618751610366	2.818382931264461e-08
892.6845427678179	3.3496543915782795e-08
893.5322604449037	3.981071705534969e-08
894.5101209362572	4.731512589614813e-08
895.60736252431	5.6234132519034905e-08
896.8838719821217	6.683439175686162e-08
898.3456457192553	7.94328234724282e-08
900.0443684745896	9.440608762859226e-08
902.0617277364304	1.1220184543019653e-07
904.230989047829	1.333521432163324e-07
906.6957405722043	1.584893192461114e-07
909.5132817193637	1.883649089489802e-07
912.6886595384573	2.2387211385683422e-07
916.1189371590451	2.6607250597988136e-07
919.9474707775371	3.162277660168379e-07
924.1061673608102	3.7583740428844433e-07
928.6970228709624	4.466835921509635e-07
933.8054540566443	5.308844442309889e-07
939.2424856449869	6.309573444801942e-07
945.1103376223762	7.498942093324558e-07
951.5501679428655	8.912509381337459e-07
958.5734082312919	1.0592537251772896e-06
966.1687311813071	1.2589254117941687e-06
974.1566250254009	1.4962356560944327e-06
982.7585719301048	1.7782794100389227e-06
992.0069054672455	2.1134890398366474e-06
1001.9137303320788	2.511886431509582e-06
1012.5072043554528	2.9853826189179636e-06
1023.3448063786568	3.5481338923357534e-06
1034.7710930096923	4.216965034285822e-06
1046.7703061914362	5.011872336272725e-06
1059.356636331889	5.95662143529011e-06
1072.431301639649	7.079457843841388e-06
1085.521345087639	8.413951416451948e-06
1099.2532302092811	1e-05       
1113.613154606538	1.188502227437019e-05
1128.5321836106134	1.4125375446227555e-05
1143.6023975066435	1.678804018122562e-05
1159.0123733475887	1.9952623149688786e-05
1175.0881104883338	2.371373705661655e-05
1191.892158145457	2.818382931264455e-05
1209.4696165452958	3.349654391578279e-05
1227.1031000692085	3.981071705534977e-05
1245.504466037089	4.731512589614803e-05
1264.748292360305	5.623413251903491e-05
1284.9122593161278	6.683439175686148e-05
1305.9361908768715	7.943282347242821e-05
1327.0156831398392	9.440608762859246e-05
1348.894376558145	0.00011220184543019629
1371.5182146272964	0.0001333521432163324
1394.8579398298452	0.00015848931924611142
1418.2866917547267	0.00018836490894898024
1441.5171969493663	0.00022387211385683424
1465.0103038779396	0.0002660725059798809
1488.640276851431	0.0003162277660168379
1512.2604046382498	0.00037583740428844437
1534.6614421571428	0.0004466835921509635
1556.7246162329868	0.0005308844442309889
1578.7149097223241	0.000630957344480193
1600.6531586053416	0.0007498942093324559
1622.437311712396	0.0008912509381337458
1643.4518958022747	0.0010592537251772895
1665.0011914156125	0.0012589254117941673
1687.3925223304354	0.0014962356560944345
1710.9184758731196	0.0017782794100389225
1735.3476682333783	0.0021134890398366475
1760.5579652110875	0.002511886431509582
1787.4467373634764	0.0029853826189179603
1816.1452291570229	0.0035481338923357567
1846.7025734552124	0.004216965034285822
1877.4379490178071	0.0050118723362727255
1909.555384361146	0.005956621435290103
1942.5776708127194	0.00707945784384138
1975.9324497203993	0.008413951416451957
2009.2      	0.01        
2040.8222103986184	0.01188502227437019
2071.543322651513	0.014125375446227554
2102.048564993996	0.016788040181225587
2132.5996896212578	0.01995262314968883
2161.861632914057	0.023713737056616554
2188.84156950509	0.02818382931264455
2215.6744541058056	0.033496543915782793
2241.728018085861	0.03981071705534969
2266.249613412112	0.04731512589614813
2288.664691568049	0.056234132519034905
2310.196980415623	0.06683439175686148
2331.1088297783936	0.07943282347242821
2351.4001352679293	0.09440608762859228
2371.3491290421503	0.11220184543019629
2390.6468460003034	0.1333521432163324
2410.588954016167	0.1584893192461114
2431.0581161218956	0.18836490894898023
2452.056171964194	0.22387211385683378
2473.754672261867	0.26607250597988086
2495.179937523106	0.3162277660168379
2517.3941127256976	0.3758374042884443
2540.412996346109	0.4466835921509634
2564.2183114098043	0.5308844442309879
2588.2515669814634	0.630957344480193
2612.5059266369935	0.7498942093324559
2637.6500532724567	0.8912509381337458
2663.750410361121	1.0592537251772898
2690.9155297996504	1.2589254117941662
2718.446620233178	1.4962356560944328
2746.9298372932635	1.7782794100389228
2776.538015479408	2.1134890398366473
2807.2594768320855	2.511886431509582
2839.120152493293	2.9853826189179573
2869.6715470377785	3.548133892335753
2899.568470232577	4.216965034285823
2928.1831693030754	5.011872336272725
2954.8396230843127	5.956621435290109
2977.9778186592575	7.079457843841373
2997.0856794776982	8.413951416451948
3018.8      	10.0        
