# T(K)	P(bar)
2882.1      	1e-08       
2879.330171351946	1.1885022274370215e-08
2876.036212579077	1.4125375446227554e-08
2872.082939728162	1.6788040181225588e-08
2867.3625581960146	1.9952623149688826e-08
2861.8759438286143	2.3713737056616554e-08
2855.3598420188573	2.818382931264461e-08
2847.8092094914764	3.3496543915782795e-08
2839.122018810146	3.981071705534969e-08
2829.206656418589	4.731512589614813e-08
2818.312614937207	5.6234132519034905e-08
2806.517637810067	6.683439175686162e-08
2794.007987388069	7.94328234724282e-08
2780.8329701558396	9.440608762859226e-08
2766.911997085295	1.1220184543019653e-07
2753.2766402707894	1.333521432163324e-07
2739.761723666929	1.584893192461114e-07
2726.348255201699	1.883649089489802e-07
2713.185591917726	2.2387211385683422e-07
2700.6610899076722	2.6607250597988136e-07
2689.057587667389	3.162277660168379e-07
2678.4692832330234	3.7583740428844433e-07
2668.9178493184936	4.466835921509635e-07
2660.349170619306	5.308844442309889e-07
2653.020997608931	6.309573444801942e-07
2646.756926335484	7.498942093324558e-07
2641.0109117667707	8.912509381337459e-07
2635.5070364235057	1.0592537251772896e-06
2629.913300345414	1.2589254117941687e-06
2625.0275011980557	1.4962356560944327e-06
2620.5506192204793	1.7782794100389227e-06
2616.332359189922	2.1134890398366474e-06
2612.377137386791	2.511886431509582e-06
2608.7657257879137	2.9853826189179636e-06
2605.8311869334116	3.5481338923357534e-06
2603.0810928702717	4.216965034285822e-06
2600.492439154266	5.011872336272725e-06
2598.013601658857	5.95662143529011e-06
2595.5571493889147	7.079457843841388e-06
2593.1625782487245	8.413951416451948e-06
2590.688808007279	1e-05       
2588.0970418560955	1.188502227437019e-05
2585.351509792839	1.4125375446227555e-05
2582.5404854391754	1.678804018122562e-05
2579.56008719722	1.9952623149688786e-05
2576.4152510525278	2.371373705661655e-05
2573.0727196488738	2.818382931264455e-05
2569.4434864883224	3.349654391578279e-05
2565.7473851383315	3.981071705534977e-05
2561.6713758744654	4.731512589614803e-05
2557.2354030029683	5.623413251903491e-05
2552.4367543350445	6.683439175686148e-05
2547.2604075492554	7.943282347242821e-05
2541.888694088362	9.440608762859246e-05
2536.164741194838	0.00011220184543019629
2530.056785619206	0.0001333521432163324
2523.532943539038	0.00015848931924611142
2516.7716258694413	0.00018836490894898024
2509.7797835920255	0.00022387211385683424
2502.509804132019	0.0002660725059798809
2494.953241049523	0.0003162277660168379
2487.064356856529	0.00037583740428844437
2479.2356205609985	0.0004466835921509635
2471.381609079675	0.0005308844442309889
2463.42534100741	0.000630957344480193
2455.4234943260167	0.0007498942093324559
2447.5747921036223	0.0008912509381337458
2440.6235508344153	0.0010592537251772895
2434.0748327170336	0.0012589254117941673
2427.9815495344983	0.0014962356560944345
2422.4168008013357	0.0017782794100389225
2417.6732683041982	0.0021134890398366475
2413.9879440738296	0.002511886431509582
2410.889133689174	0.0029853826189179603
2408.3654454501957	0.0035481338923357567
2406.4329165445115	0.004216965034285822
2405.4968137354986	0.0050118723362727255
2405.238769965725	0.005956621435290103
2405.678223396087	0.00707945784384138
2406.8473277084	0.008413951416451957
2408.7      	0.01        
2411.4698286480543	0.01188502227437019
2414.982790747227	0.014125375446227554
2419.1170602718385	0.016788040181225587
2423.7559251253783	0.01995262314968883
2428.765442591265	0.023713737056616554
2433.9759388688108	0.02818382931264455
2439.343345097943	0.033496543915782793
2444.672055706153	0.03981071705534969
2449.7640810885127	0.04731512589614813
2454.388170638164	0.056234132519034905
2458.7066446480408	0.06683439175686148
2462.68726744025	0.07943282347242821
2466.2709895593434	0.09440608762859228
2469.476878065901	0.11220184543019629
2472.1785584400427	0.1333521432163324
2474.5050027614443	0.1584893192461114
2476.460997848888	0.18836490894898023
2478.0562454096585	0.22387211385683378
2479.3326277801098	0.26607250597988086
2480.1294941555075	0.3162277660168379
2480.706127348452	0.3758374042884443
2481.120445896569	0.4466835921509634
2481.440895887342	0.5308844442309879
2481.7560861243473	0.630957344480193
2481.9991040632094	0.7498942093324559
2482.279077578738	0.8912509381337458
2482.6209259697494	1.0592537251772898
2483.027304729008	1.2589254117941662
2483.4926189335183	1.4962356560944328
2483.9588622263773	1.7782794100389228
2484.470068346481	2.1134890398366473
2485.046286686793	2.511886431509582
2485.6883154154816	2.9853826189179573
2486.1529704841982	3.548133892335753
2486.620983611129	4.216965034285823
2487.062509813828	5.011872336272725
2487.437393387853	5.956621435290109
2487.675114575266	7.079457843841373
2487.9068472662525	8.413951416451948
2488.1      	10.0        
