# T(K)	P(bar)
2582.8      	1e-08       
2584.0310349546908	1.1885022274370215e-08
2585.4402657999453	1.4125375446227554e-08
2587.1071832723533	1.6788040181225588e-08
2589.093997279936	1.9952623149688826e-08
2591.399965637249	2.3713737056616554e-08
2594.0582038295347	2.818382931264461e-08
2597.086625348053	3.3496543915782795e-08
2600.41828829798	3.981071705534969e-08
2603.9932890580617	4.731512589614813e-08
2607.9120090153933	5.6234132519034905e-08
2612.297916174298	6.683439175686162e-08
2617.1906308735424	7.94328234724282e-08
2622.6113306847856	9.440608762859226e-08
2628.57636496123	1.1220184543019653e-07
2634.7742544223684	1.333521432163324e-07
2641.4553081925446	1.584893192461114e-07
2648.4614193523776	1.883649089489802e-07
2655.641380429329	2.2387211385683422e-07
2662.8210312631177	2.6607250597988136e-07
2669.692497984016	3.162277660168379e-07
2676.3347616535866	3.7583740428844433e-07
2682.718583508954	4.466835921509635e-07
2688.8156780284794	5.308844442309889e-07
2694.3315071760735	6.309573444801942e-07
2699.546657411678	7.498942093324558e-07
2706.500786441871	8.912509381337459e-07
2718.3221132935287	1.0592537251772896e-06
2738.0874036927653	1.2589254117941687e-06
2753.210115339351	1.4962356560944327e-06
2765.791176401557	1.7782794100389227e-06
2777.7643412378798	2.1134890398366474e-06
2790.7023096622693	2.511886431509582e-06
2806.512267106244	2.9853826189179636e-06
2823.710898076731	3.5481338923357534e-06
2838.5620219912494	4.216965034285822e-06
2852.8428709627015	5.011872336272725e-06
2867.5693850935663	5.95662143529011e-06
2880.0893676306946	7.079457843841388e-06
2890.0186360938524	8.413951416451948e-06
2901.8337579617832	1e-05       
2915.6662697914735	1.188502227437019e-05
2930.3663508056266	1.4125375446227555e-05
2941.298112180985	1.678804018122562e-05
2950.5320528081256	1.9952623149688786e-05
2959.2789667140114	2.371373705661655e-05
2967.4515295521273	2.818382931264455e-05
2974.2682871599436	3.349654391578279e-05
2978.7344096245156	3.981071705534977e-05
2981.794740222539	4.731512589614803e-05
2983.234993169441	5.623413251903491e-05
2982.914701734018	6.683439175686148e-05
2980.8441630197017	7.943282347242821e-05
2976.834135439594	9.440608762859246e-05
2971.0169032367476	0.00011220184543019629
2963.4310712959295	0.0001333521432163324
2954.1245456521215	0.00015848931924611142
2942.8818895270942	0.00018836490894898024
2929.454739153545	0.00022387211385683424
2914.105841102042	0.0002660725059798809
2896.247506500756	0.0003162277660168379
2875.0193521483175	0.00037583740428844437
2854.47860840262	0.0004466835921509635
2833.871548575385	0.0005308844442309889
2812.9588188908037	0.000630957344480193
2791.698162996923	0.0007498942093324559
2770.154276284432	0.0008912509381337458
2749.2222869662314	0.0010592537251772895
2728.116109056779	0.0012589254117941673
2707.0136053244873	0.0014962356560944345
2686.1874966321666	0.0017782794100389225
2666.65995451895	0.0021134890398366475
2648.672066979449	0.002511886431509582
2631.3967278798286	0.0029853826189179603
2614.798181419575	0.0035481338923357567
2598.687532696479	0.004216965034285822
2583.1638277803463	0.0050118723362727255
2567.347842973664	0.005956621435290103
2550.672423021412	0.00707945784384138
2532.7933345464007	0.008413951416451957
2513.3      	0.01        
2492.4493454549256	0.01188502227437019
2469.993753853485	0.014125375446227554
2446.241148004803	0.016788040181225587
2421.6426493910194	0.01995262314968883
2397.3107074138547	0.023713737056616554
2374.832025412425	0.02818382931264455
2353.747250867082	0.033496543915782793
2334.3254933988733	0.03981071705534969
2316.681904235882	0.04731512589614813
2301.555645200582	0.056234132519034905
2288.6350947575534	0.06683439175686148
2277.1764559669523	0.07943282347242821
2267.1265534507893	0.09440608762859228
2258.4067065771633	0.11220184543019629
2251.6139102078932	0.1333521432163324
2246.18874378675	0.1584893192461114
2242.0867182806364	0.18836490894898023
2239.3117239141343	0.22387211385683378
2237.8757937473765	0.26607250597988086
2237.727050584449	0.3162277660168379
2238.261233472162	0.3758374042884443
2239.4323409569874	0.4466835921509634
2241.2067191550627	0.5308844442309879
2243.570645932603	0.630957344480193
2246.355616779583	0.7498942093324559
2249.5250839714327	0.8912509381337458
2253.109259697496	1.0592537251772898
2257.041074433209	1.2589254117941662
2259.445197823179	1.4962356560944328
2261.4952592765717	1.7782794100389228
2263.3487862317984	2.1134890398366473
2265.1388600603777	2.511886431509582
2267.0649462464457	2.9853826189179573
2269.0628720981917	3.548133892335753
2271.0374317130354	4.216965034285823
2272.9150431808434	5.011872336272725
2274.6368247897326	5.956621435290109
2276.1423923100206	7.079457843841373
2277.3342363312627	8.413951416451948
2278.7      	10.0        
