# T(K)	P(bar)
1203.3      	1e-08       
1205.3004318013725	1.1885022274370215e-08
1207.652026610434	1.4125375446227554e-08
1210.4116728175736	1.6788040181225588e-08
1213.6521334288598	1.9952623149688826e-08
1217.468908640964	2.3713737056616554e-08
1221.873594917515	2.818382931264461e-08
1226.8464365443792	3.3496543915782795e-08
1232.4873812622825	3.981071705534969e-08
1238.9000545233496	4.731512589614813e-08
1245.8753760473999	5.6234132519034905e-08
1253.6032318927303	6.683439175686162e-08
1261.993333741867	7.94328234724282e-08
1270.9694192000632	9.440608762859226e-08
1280.46675200386	1.1220184543019653e-07
1289.8410598138323	1.333521432163324e-07
1299.3659421327616	1.584893192461114e-07
1308.9485591365037	1.883649089489802e-07
1318.4737945581278	2.2387211385683422e-07
1327.807340642053	2.6607250597988136e-07
1336.6891827883353	3.162277660168379e-07
1345.5143771711046	3.7583740428844433e-07
1354.2821506815064	4.466835921509635e-07
1362.9428451272133	5.308844442309889e-07
1370.9801961708501	6.309573444801942e-07
1378.0731218962837	7.498942093324558e-07
1384.5024739960206	8.912509381337459e-07
1390.1994820248947	1.0592537251772896e-06
1395.1411917729056	1.2589254117941687e-06
1399.2514672460802	1.4962356560944327e-06
1402.8914666978294	1.7782794100389227e-06
1406.3589912712423	2.1134890398366474e-06
1409.7497192698124	2.511886431509582e-06
1413.0401165043452	2.9853826189179636e-06
1416.1198032279876	3.5481338923357534e-06
1419.239890740857	4.216965034285822e-06
1422.4000785106246	5.011872336272725e-06
1425.5611851168478	5.95662143529011e-06
1428.4930797616182	7.079457843841388e-06
1431.2132181062786	8.413951416451948e-06
1433.858416742493	1e-05       
1436.423285366501	1.188502227437019e-05
1438.8794651496164	1.4125375446227555e-05
1440.90964940504	1.678804018122562e-05
1442.613799201497	1.9952623149688786e-05
1443.975280128405	2.371373705661655e-05
1444.820606230025	2.818382931264455e-05
1444.8894037165605	3.349654391578279e-05
1444.1963847134373	3.981071705534977e-05
1442.7661160970042	4.731512589614803e-05
1440.5402459001161	5.623413251903491e-05
1437.5183184524928	6.683439175686148e-05
1433.855057650242	7.943282347242821e-05
1429.5193651862378	9.440608762859246e-05
1424.2643480963088	0.00011220184543019629
1418.025357038387	0.0001333521432163324
1410.7545583155584	0.00015848931924611142
1402.420841187916	0.00018836490894898024
1392.5124333422789	0.00022387211385683424
1380.9379644800324	0.0002660725059798809
1367.7962259986186	0.0003162277660168379
1353.3287137130571	0.00037583740428844437
1337.6712411219971	0.0004466835921509635
1319.6778988930857	0.0005308844442309889
1300.9547504528123	0.000630957344480193
1282.8272382467487	0.0007498942093324559
1266.5692122146456	0.0008912509381337458
1251.6827256782453	0.0010592537251772895
1238.3539905521654	0.0012589254117941673
1227.5754218795755	0.0014962356560944345
1220.1192806811357	0.0017782794100389225
1216.0872780585685	0.0021134890398366475
1214.3145855957123	0.002511886431509582
1216.2313613455842	0.0029853826189179603
1222.24586183906	0.0035481338923357567
1232.1056266490975	0.004216965034285822
1244.7430145707735	0.0050118723362727255
1261.1767577118326	0.005956621435290103
1281.4172134557623	0.00707945784384138
1305.3348743487993	0.008413951416451957
1332.4      	0.01        
1362.483416705255	0.01188502227437019
1396.356877535533	0.014125375446227554
1432.6400738108837	0.016788040181225587
1469.650717538345	0.01995262314968883
1504.478791348796	0.023713737056616554
1536.5770395836414	0.02818382931264455
1566.7796281324775	0.033496543915782793
1594.8264087532166	0.03981071705534969
1620.9327815339166	0.04731512589614813
1646.169338059132	0.056234132519034905
1672.277439642434	0.06683439175686148
1699.3142355150426	0.07943282347242821
1727.565527118845	0.09440608762859228
1757.8730566626898	0.11220184543019629
1792.0686111125374	0.1333521432163324
1830.3766573419725	0.1584893192461114
1871.9584200567008	0.18836490894898023
1917.1658317244433	0.22387211385683378
1968.3009004406497	0.26607250597988086
2028.4841394539853	0.3162277660168379
2095.6680810430626	0.3758374042884443
2168.5467922282855	0.4466835921509634
2244.1801520882746	0.5308844442309879
2311.0792798926645	0.630957344480193
2356.968779609471	0.7498942093324559
2390.7663635874083	0.8912509381337458
2415.23515019033	1.0592537251772898
2433.7327942347492	1.2589254117941662
2447.924877472314	1.4962356560944328
2460.530417885808	1.7782794100389228
2472.047042160208	2.1134890398366473
2482.7954444962297	2.511886431509582
2493.3086649285174	2.9853826189179573
2503.4653506523596	3.548133892335753
2513.3336612966564	4.216965034285823
2522.7077178669833	5.011872336272725
2531.421517336516	5.956621435290109
2539.187076125367	7.079457843841373
2546.6880616088292	8.413951416451948
2558.4      	10.0        
