# T(K)	P(bar)
2641.6      	1e-08       
2641.4461206306637	1.1885022274370215e-08
2641.290498336848	1.4125375446227554e-08
2641.1327347273036	1.6788040181225588e-08
2640.959241660696	1.9952623149688826e-08
2640.72069320994	2.3713737056616554e-08
2640.4190624194816	2.818382931264461e-08
2640.0577286160915	3.3496543915782795e-08
2639.661558147957	3.981071705534969e-08
2639.2449395318718	4.731512589614813e-08
2638.696318737845	5.6234132519034905e-08
2638.0899425966486	6.683439175686162e-08
2637.3771771403726	7.94328234724282e-08
2636.538703132197	9.440608762859226e-08
2635.5691361317845	1.1220184543019653e-07
2634.4845054760854	1.333521432163324e-07
2633.2234063718947	1.584893192461114e-07
2631.8114781367203	1.883649089489802e-07
2630.2476625617196	2.2387211385683422e-07
2628.492636802349	2.6607250597988136e-07
2626.6492140267824	3.162277660168379e-07
2624.622426931966	3.7583740428844433e-07
2622.486990198159	4.466835921509635e-07
2620.3035048167726	5.308844442309889e-07
2618.0183755984835	6.309573444801942e-07
2615.908063431115	7.498942093324558e-07
2613.791226343519	8.912509381337459e-07
2611.0423699146045	1.0592537251772896e-06
2606.8861129561024	1.2589254117941687e-06
2603.2411516874386	1.4962356560944327e-06
2599.8281540442963	1.7782794100389227e-06
2596.1323591899218	2.1134890398366474e-06
2592.049136535848	2.511886431509582e-06
2587.8759497993674	2.9853826189179636e-06
2584.553711529913	3.5481338923357534e-06
2581.574098333229	4.216965034285822e-06
2578.729929340438	5.011872336272725e-06
2575.9759239719447	5.95662143529011e-06
2573.9156736810246	7.079457843841388e-06
2572.6657636687373	8.413951416451948e-06
2571.916651501365	1e-05       
2571.732787962339	1.188502227437019e-05
2572.203537586317	1.4125375446227555e-05
2573.374797733677	1.678804018122562e-05
2575.1014848017107	1.9952623149688786e-05
2577.27383457004	2.371373705661655e-05
2579.821218050876	2.818382931264455e-05
2582.6412077689315	3.349654391578279e-05
2585.3362816699664	3.981071705534977e-05
2588.062997118402	4.731512589614803e-05
2590.8247609304426	5.623413251903491e-05
2593.559394086363	6.683439175686148e-05
2596.0281133226626	7.943282347242821e-05
2598.3477025335587	9.440608762859246e-05
2600.694103522065	0.00011220184543019629
2603.067857178072	0.0001333521432163324
2605.4675778352193	0.00015848931924611142
2607.8261770222875	0.00018836490894898024
2610.281834341266	0.00022387211385683424
2612.8794325479935	0.0002660725059798809
2615.579487799145	0.0003162277660168379
2618.316311980411	0.00037583740428844437
2621.0292403996536	0.0004466835921509635
2623.8095254765517	0.0005308844442309889
2626.608050145947	0.000630957344480193
2629.364537624913	0.0007498942093324559
2632.0074679651066	0.0008912509381337458
2634.473848592208	0.0010592537251772895
2636.917039330518	0.0012589254117941673
2639.2123903113106	0.0014962356560944345
2641.2277330662214	0.0017782794100389225
2642.808910565267	0.0021134890398366475
2643.744187286693	0.002511886431509582
2643.961925744786	0.0029853826189179603
2643.2669741781647	0.0035481338923357567
2641.4484370419173	0.004216965034285822
2637.9380515081184	0.0050118723362727255
2632.730207497939	0.005956621435290103
2625.9148050326085	0.00707945784384138
2617.4299730884004	0.008413951416451957
2607.2      	0.01        
2595.42822824577	0.01188502227437019
2582.8113619583737	0.014125375446227554
2569.5488191844847	0.016788040181225587
2555.808844094181	0.01995262314968883
2541.8140016497987	0.023713737056616554
2528.5196840377143	0.02818382931264455
2515.889587098824	0.033496543915782793
2504.1343816244253	0.03981071705534969
2493.316777354846	0.04731512589614813
2483.519977461517	0.056234132519034905
2475.041739405594	0.06683439175686148
2467.521441121239	0.07943282347242821
2460.975768271149	0.09440608762859228
2455.3769950945584	0.11220184543019629
2451.054306495932	0.1333521432163324
2447.549817385028	0.1584893192461114
2444.67662222307	0.18836490894898023
2442.363677899823	0.22387211385683378
2440.688426038606	0.26607250597988086
2439.2869105200866	0.3162277660168379
2437.983660404128	0.3758374042884443
2436.657993465439	0.4466835921509634
2435.15462467595	0.5308844442309879
2433.2634832539175	0.630957344480193
2430.8098553046957	0.7498942093324559
2427.9092242126203	0.8912509381337458
2424.563295884354	1.0592537251772898
2420.7451558625903	1.2589254117941662
2416.4022232871607	1.4962356560944328
2411.8711881072904	1.7782794100389228
2407.185128458732	2.1134890398366473
2402.421135684904	2.511886431509582
2397.6861738108205	2.9853826189179573
2393.3722754808173	3.548133892335753
2389.37863384245	4.216965034285823
2385.7999214893753	5.011872336272725
2382.713601658857	5.956621435290109
2380.2571493889145	7.079457843841373
2378.3452218699804	8.413951416451948
2376.3      	10.0        
