# T(K)	P(bar)
2776.8      	1e-08       
2776.5691809459954	1.1885022274370215e-08
2776.445249168424	1.4125375446227554e-08
2776.366367363652	1.6788040181225588e-08
2776.286413886899	1.9952623149688826e-08
2776.2068977366466	2.3713737056616554e-08
2776.1297656048705	2.818382931264461e-08
2776.0030914464364	3.3496543915782795e-08
2775.8723116295914	3.981071705534969e-08
2775.784268437678	4.731512589614813e-08
2775.6275196393844	5.6234132519034905e-08
2775.4087284737434	6.683439175686162e-08
2775.173153142112	7.94328234724282e-08
2774.934675783049	9.440608762859226e-08
2774.6889771899228	1.1220184543019653e-07
2774.3016090986016	1.333521432163324e-07
2773.912766579969	1.584893192461114e-07
2773.4825720431745	1.883649089489802e-07
2772.9718772951705	2.2387211385683422e-07
2772.333686109945	2.6607250597988136e-07
2771.6434552600435	3.162277660168379e-07
2770.88978775258	3.7583740428844433e-07
2770.0386623102927	4.466835921509635e-07
2769.077312337975	5.308844442309889e-07
2768.131741626959	6.309573444801942e-07
2767.0708477050225	7.498942093324558e-07
2765.9732284744173	8.912509381337459e-07
2764.7646665089014	1.0592537251772896e-06
2763.3317381774796	1.2589254117941687e-06
2762.168452666204	1.4962356560944327e-06
2761.06265480512	1.7782794100389227e-06
2760.1527692688096	2.1134890398366474e-06
2759.5085708207544	2.511886431509582e-06
2759.1073028653236	2.9853826189179636e-06
2759.1      	3.5481338923357534e-06
2759.367486342607	4.216965034285822e-06
2760.12003140425	5.011872336272725e-06
2761.474218177585	5.95662143529011e-06
2763.2175068852866	7.079457843841388e-06
2765.0547781300197	8.413951416451948e-06
2767.6417652411283	1e-05       
2771.107552400792	1.188502227437019e-05
2775.3865403222503	1.4125375446227555e-05
2779.759244872394	1.678804018122562e-05
2784.291150137539	1.9952623149688786e-05
2790.0749550836604	2.371373705661655e-05
2797.116379392328	2.818382931264455e-05
2804.6130270233552	3.349654391578279e-05
2812.0052297233365	3.981071705534977e-05
2820.886361466476	4.731512589614803e-05
2831.0290573828884	5.623413251903491e-05
2841.911672165835	6.683439175686148e-05
2852.1847296330166	7.943282347242821e-05
2861.848760556496	9.440608762859246e-05
2873.2191417654726	0.00011220184543019629
2885.1210715917327	0.0001333521432163324
2896.1327461690953	0.00015848931924611142
2906.1174827276855	0.00018836490894898024
2917.328483828354	0.00022387211385683424
2928.6352938019713	0.0002660725059798809
2938.9613895091748	0.0003162277660168379
2947.145916758583	0.00037583740428844437
2952.8818225592686	0.0004466835921509635
2958.6362468129114	0.0005308844442309889
2962.596948671506	0.000630957344480193
2963.757855984901	0.0007498942093324559
2962.1560800211473	0.0008912509381337458
2959.2068720282464	0.0010592537251772895
2954.3399706303767	0.0012589254117941673
2947.0192604742865	0.0014962356560944345
2936.957842043407	0.0017782794100389225
2924.861834175706	0.0021134890398366475
2911.493003412914	0.002511886431509582
2896.272876390256	0.0029853826189179603
2879.287480323794	0.0035481338923357567
2860.8583308902257	0.004216965034285822
2842.136274709965	0.0050118723362727255
2822.892491431297	0.005956621435290103
2802.9181969841293	0.00707945784384138
2782.2071087764007	0.008413951416451957
2760.7      	0.01        
2739.6954660855895	0.01188502227437019
2718.3435213165826	0.014125375446227554
2696.5837597315926	0.016788040181225587
2674.368716105449	0.01995262314968883
2651.9451617343366	0.023713737056616554
2629.9129629929434	0.02818382931264455
2607.5420768404106	0.033496543915782793
2584.881126063129	0.03981071705534969
2561.926789244404	0.04731512589614813
2539.2765878910277	0.056234132519034905
2517.3204765318637	0.06683439175686148
2495.4723713602393	0.07943282347242821
2473.633721518497	0.09440608762859228
2451.6091371506463	0.11220184543019629
2430.844793703674	0.1333521432163324
2410.4537244566386	0.1584893192461114
2390.485453770167	0.18836490894898023
2371.0043648694336	0.22387211385683378
2352.0979510071234	0.26607250597988086
2334.978179163286	0.3162277660168379
2318.744733826857	0.3758374042884443
2303.479934654393	0.4466835921509634
2289.20282067532	0.5308844442309879
2276.122425839597	0.630957344480193
2263.880220692038	0.7498942093324559
2252.018898981381	0.8912509381337458
2240.514072847012	1.0592537251772898
2229.2901943854845	1.2589254117941662
2218.8981771514204	1.4962356560944328
2209.0237036171407	1.7782794100389228
2199.5245816868814	2.1134890398366473
2190.4434155641484	2.511886431509582
2181.8562813179283	2.9853826189179573
2174.1504919300305	3.548133892335753
2166.8317485645503	4.216965034285823
2159.9998429787506	5.011872336272725
2153.752416542009	5.956621435290109
2148.3640696272964	7.079457843841373
2143.663054674951	8.413951416451948
2137.4      	10.0        
