# T(K)	P(bar)
1519.6      	1e-08       
1535.4495750416434	1.1885022274370215e-08
1544.5800665260851	1.4125375446227554e-08
1550.3861213626228	1.6788040181225588e-08
1555.5015806729734	1.9952623149688826e-08
1560.1930335378515	2.3713737056616554e-08
1564.9545324980334	2.818382931264461e-08
1569.852619437252	3.3496543915782795e-08
1574.9828091877876	3.981071705534969e-08
1580.4584704624476	4.731512589614813e-08
1586.0230528018583	5.6234132519034905e-08
1591.7817881564195	6.683439175686162e-08
1597.7980183050956	7.94328234724282e-08
1604.1073033356377	9.440608762859226e-08
1610.789592333322	1.1220184543019653e-07
1617.452323504046	1.333521432163324e-07
1624.312754876551	1.584893192461114e-07
1631.4701333307905	1.883649089489802e-07
1638.9374724579511	2.2387211385683422e-07
1646.595766680659	2.6607250597988136e-07
1654.1490427239728	3.162277660168379e-07
1661.9531436989425	3.7583740428844433e-07
1669.9713703625107	4.466835921509635e-07
1678.163293070884	5.308844442309889e-07
1686.3582392330238	6.309573444801942e-07
1694.6013782544708	7.498942093324558e-07
1703.035094625924	8.912509381337459e-07
1711.6845565284405	1.0592537251772896e-06
1720.6187898511553	1.2589254117941687e-06
1729.4597597368513	1.4962356560944327e-06
1738.4978134143564	1.7782794100389227e-06
1747.8297430825367	2.1134890398366474e-06
1757.449157809437	2.511886431509582e-06
1767.3203495130356	2.9853826189179636e-06
1777.087875248861	3.5481338923357534e-06
1787.1011476392637	4.216965034285822e-06
1797.3902590850614	5.011872336272725e-06
1807.9827024533638	5.95662143529011e-06
1818.6801558869856	7.079457843841388e-06
1829.4528724251145	8.413951416451948e-06
1840.694813466788	1e-05       
1852.4101964626336	1.188502227437019e-05
1864.5905959092067	1.4125375446227555e-05
1876.9278694613972	1.678804018122562e-05
1889.5601461450226	1.9952623149688786e-05
1902.6033615408617	2.371373705661655e-05
1916.1060902543804	2.818382931264455e-05
1930.2154577632714	3.349654391578279e-05
1944.30684416011	3.981071705534977e-05
1958.9001844393717	4.731512589614803e-05
1974.1286475493616	5.623413251903491e-05
1990.0379286356297	6.683439175686148e-05
2006.3633300369645	7.943282347242821e-05
2022.8918681571731	9.440608762859246e-05
2040.1559729647508	0.00011220184543019629
2058.1982145615625	0.0001333521432163324
2077.1030575099726	0.00015848931924611142
2096.522190816837	0.00018836490894898024
2116.384789376455	0.00022387211385683424
2137.235460383945	0.0002660725059798809
2159.2485724044727	0.0003162277660168379
2182.6202222281754	0.00037583740428844437
2206.416480076965	0.0004466835921509635
2231.2857292889635	0.0005308844442309889
2257.3693999850284	0.000630957344480193
2284.673056268001	0.0007498942093324559
2313.1045796246344	0.0008912509381337458
2341.2508932733795	0.0010592537251772895
2370.260959643362	0.0012589254117941673
2400.0733968576133	0.0014962356560944345
2430.481381644961	0.0017782794100389225
2460.2075186270235	0.0021134890398366475
2488.831754188761	0.002511886431509582
2517.368910625642	0.0029853826189179603
2545.70914587925	0.0035481338923357567
2573.8342396332578	0.004216965034285822
2600.8252039598	0.0050118723362727255
2627.318211653436	0.005956621435290103
2653.8902550904363	0.00707945784384138
2680.576527256399	0.008413951416451957
2707.4      	0.01        
2732.7900959404965	0.01188502227437019
2758.0297677674926	0.014125375446227554
2783.194280449633	0.016788040181225587
2808.2573506089807	0.01995262314968883
2832.589292586145	0.023713737056616554
2855.348912168093	0.02818382931264455
2877.9094688828077	0.033496543915782793
2900.2419902327847	0.03981071705534969
2922.323760913532	0.04731512589614813
2943.484848683123	0.056234132519034905
2964.031894310596	0.06683439175686148
2984.76252349417	0.07943282347242821
3005.748531091667	0.09440608762859228
3026.977683752342	0.11220184543019629
3047.278881992319	0.1333521432163324
3067.6035970705557	0.1584893192461114
3087.976926157875	0.18836490894898023
3108.3358652021216	0.22387211385683378
3128.4388875367295	0.26607250597988086
3147.2267079788307	0.3162277660168379
3165.6369241401453	0.3758374042884443
3183.684747259582	0.4466835921509634
3201.3368101136034	0.5308844442309879
3217.805499997134	0.630957344480193
3232.9090280664755	0.7498942093324559
3247.1451052804155	0.8912509381337458
3260.327779092487	1.0592537251772898
3272.2506453683313	1.2589254117941662
3281.6344818259563	1.4962356560944328
3289.2427437667216	1.7782794100389228
3295.3306151183315	2.1134890398366473
3299.894861762265	2.511886431509582
3302.9444982235395	2.9853826189179573
3304.509901613994	3.548133892335753
3305.481475416693	4.216965034285823
3305.965003925531	5.011872336272725
3306.1124644626175	5.956621435290109
3306.191704858422	7.079457843841373
3306.2      	8.413951416451948
3306.2      	10.0        
