# T(K)	P(bar)
2902.1      	1e-08       
2901.2536634686503	1.1885022274370215e-08
2900.288239189511	1.4125375446227554e-08
2899.2627757274754	1.6788040181225588e-08
2898.1826221903802	1.9952623149688826e-08
2896.9103637863454	2.3713737056616554e-08
2895.325077702279	2.818382931264461e-08
2893.391734526892	3.3496543915782795e-08
2891.058595406106	3.981071705534969e-08
2888.2539056289056	4.731512589614813e-08
2884.8054320664537	5.6234132519034905e-08
2880.62959817654	6.683439175686162e-08
2875.555675410681	7.94328234724282e-08
2869.4184987524936	9.440608762859226e-08
2862.0530890542786	1.1220184543019653e-07
2853.3760438086842	1.333521432163324e-07
2843.287250975158	1.584893192461114e-07
2831.7743971369364	1.883649089489802e-07
2818.9293465080673	2.2387211385683422e-07
2805.1284621275627	2.6607250597988136e-07
2791.925649940823	3.162277660168379e-07
2777.299839950567	3.7583740428844433e-07
2761.2862560076983	4.466835921509635e-07
2744.273413858232	5.308844442309889e-07
2727.8835215339523	6.309573444801942e-07
2713.2555480810133	7.498942093324558e-07
2700.239821402643	8.912509381337459e-07
2688.7075543986116	1.0592537251772896e-06
2678.1493546316683	1.2589254117941687e-06
2668.765518174044	1.4962356560944327e-06
2660.379721409461	1.7782794100389227e-06
2652.689111495743	2.1134890398366474e-06
2645.600561460375	2.511886431509582e-06
2639.0197669913096	2.9853826189179636e-06
2633.3133640282226	3.5481338923357534e-06
2627.8086884720215	4.216965034285822e-06
2622.487372420235	5.011872336272725e-06
2617.314738855097	5.95662143529011e-06
2612.3225939194067	7.079457843841388e-06
2607.1114619649443	8.413951416451948e-06
2601.5053685168336	1e-05       
2595.422277417643	1.188502227437019e-05
2588.7649694705883	1.4125375446227555e-05
2581.581240566781	1.678804018122562e-05
2573.568442125778	1.9952623149688786e-05
2564.710118908556	2.371373705661655e-05
2554.9387651766456	2.818382931264455e-05
2544.1257500056604	3.349654391578279e-05
2532.729437509857	3.981071705534977e-05
2520.414127623396	4.731512589614803e-05
2507.211188517228	5.623413251903491e-05
2493.128816317743	6.683439175686148e-05
2478.236864795549	7.943282347242821e-05
2462.7388029407025	9.440608762859246e-05
2446.4416684440753	0.00011220184543019629
2429.464642600076	0.0001333521432163324
2412.0180358922908	0.00015848931924611142
2395.4292216099084	0.00018836490894898024
2379.7234780439244	0.00022387211385683424
2363.605841102042	0.0002660725059798809
2346.733329305557	0.0003162277660168379
2328.9556033253702	0.00037583740428844437
2311.5928614422146	0.0004466835921509635
2295.8148057387752	0.0005308844442309889
2280.449664905323	0.000630957344480193
2264.707487841464	0.0007498942093324559
2247.8888402220473	0.0008912509381337458
2231.2023392340893	0.0010592537251772895
2214.0199118911296	0.0012589254117941673
2197.7132678208272	0.0014962356560944345
2183.378135470229	0.0017782794100389225
2170.7287154778624	0.0021134890398366475
2159.9314856111882	0.002511886431509582
2149.931005039715	0.0029853826189179603
2140.8871639827757	0.0035481338923357567
2133.1645827225566	0.004216965034285822
2128.4840686774915	0.0050118723362727255
2127.255079862901	0.005956621435290103
2128.8136338359786	0.00707945784384138
2133.0142695564	0.008413951416451957
2139.7      	0.01        
2149.3944002681897	0.01188502227437019
2161.552890536355	0.014125375446227554
2175.825629360564	0.016788040181225587
2192.3101143884123	0.01995262314968883
2212.268668101707	0.023713737056616554
2235.000084143741	0.02818382931264455
2258.630100141662	0.033496543915782793
2282.8557064562697	0.03981071705534969
2307.953023406431	0.04731512589614813
2335.3840631077524	0.056234132519034905
2362.3874970457855	0.06683439175686148
2389.037718939638	0.07943282347242821
2415.5380870374684	0.09440608762859228
2442.609474722458	0.11220184543019629
2467.5421250323916	0.1333521432163324
2491.1098505223613	0.1584893192461114
2513.88287597798	0.18836490894898023
2536.1081259498833	0.22387211385683378
2557.567304553096	0.26607250597988086
2577.083252718787	0.3162277660168379
2595.5838604659193	0.3758374042884443
2613.273966940586	0.4466835921509634
2630.4163621699327	0.5308844442309879
2646.7274569349606	0.630957344480193
2661.0789798347073	0.7498942093324559
2673.915409202672	0.8912509381337458
2685.223149243739	1.0592537251772898
2695.1596296049706	1.2589254117941662
2702.9924187142283	1.4962356560944328
2709.3455882007784	1.7782794100389228
2714.4833843871415	2.1134890398366473
2718.5131475981143	2.511886431509582
2721.6430376504745	2.9853826189179573
2723.7383671788916	3.548133892335753
2725.3629508333856	4.216965034285823
2726.590023553187	5.011872336272725
2727.49971570094	5.956621435290109
2728.1336388673767	7.079457843841373
2728.682643621256	8.413951416451948
2729.3      	10.0        
