# T(K)	P(bar)
1492.5      	1e-08       
1505.1950479702484	1.1885022274370215e-08
1513.7633223471175	1.4125375446227554e-08
1519.7179581808825	1.6788040181225588e-08
1524.365719541961	1.9952623149688826e-08
1528.2620109043173	2.3713737056616554e-08
1531.9712509662195	2.818382931264461e-08
1535.871168115871	3.3496543915782795e-08
1539.9951720020665	3.981071705534969e-08
1544.3640810885126	4.731512589614813e-08
1548.9881706381639	5.6234132519034905e-08
1553.8167020513922	6.683439175686162e-08
1558.975195445468	7.94328234724282e-08
1564.4895559458018	9.440608762859226e-08
1570.3741603992144	1.1220184543019653e-07
1576.494576242089	1.333521432163324e-07
1582.92552145652	1.584893192461114e-07
1589.7251813595738	1.883649089489802e-07
1596.88942644364	2.2387211385683422e-07
1604.3083989718884	2.6607250597988136e-07
1611.776093308422	3.162277660168379e-07
1619.5531436989427	3.7583740428844433e-07
1627.6617047849375	4.466835921509635e-07
1636.0939649863903	5.308844442309889e-07
1644.525303826284	6.309573444801942e-07
1653.0004823176803	7.498942093324558e-07
1661.7589415993466	8.912509381337459e-07
1670.78129730424	1.0592537251772896e-06
1680.0369930038273	1.2589254117941687e-06
1689.188172359197	1.4962356560944327e-06
1698.537054898608	1.7782794100389227e-06
1708.1069054672455	2.1134890398366474e-06
1717.885729481135	2.511886431509582e-06
1727.9174283669058	2.9853826189179636e-06
1737.687875248861	3.5481338923357534e-06
1747.8081421763068	4.216965034285822e-06
1758.2877649733584	5.011872336272725e-06
1769.1200958412164	5.95662143529011e-06
1780.055270462252	7.079457843841388e-06
1790.9907706026163	8.413951416451948e-06
1802.3420382165605	1e-05       
1814.1101964626337	1.188502227437019e-05
1826.2905959092068	1.4125375446227555e-05
1838.6278694613973	1.678804018122562e-05
1851.1975842782847	1.9952623149688786e-05
1864.285544416348	2.371373705661655e-05
1877.9060902543804	2.818382931264455e-05
1892.013103033618	3.349654391578279e-05
1905.9504852075404	3.981071705534977e-05
1920.2758419115544	4.731512589614803e-05
1935.1186885327143	5.623413251903491e-05
1950.5341944870959	6.683439175686148e-05
1966.3021431576535	7.943282347242821e-05
1982.1475573971054	9.440608762859246e-05
1998.558331555925	0.00011220184543019629
2015.593214545129	0.0001333521432163324
2033.3425108088409	0.00015848931924611142
2051.3464846034644	0.00018836490894898024
2069.748700236328	0.00022387211385683424
2088.9781804999493	0.0002660725059798809
2109.0607890522856	0.0003162277660168379
2130.0138798460853	0.00037583740428844437
2151.329745997281	0.0004466835921509635
2173.710595532029	0.0005308844442309889
2197.3482141456457	0.000630957344480193
2222.2598402453527	0.0007498942093324559
2248.288699656355	0.0008912509381337458
2274.6446895977297	0.0010592537251772895
2302.122033580481	0.0012589254117941673
2330.698447483162	0.0014962356560944345
2360.3155416048944	0.0017782794100389225
2390.2788552118136	0.0021134890398366475
2419.811248254852	0.002511886431509582
2449.689405660399	0.0029853826189179603
2479.6929360650697	0.0035481338923357567
2509.640455104448	0.004216965034285822
2538.1135822119277	0.0050118723362727255
2565.8978922018327	0.005956621435290103
2593.688034335545	0.00707945784384138
2621.5099156259994	0.008413951416451957
2649.3      	0.01        
2675.6133721565147	0.01188502227437019
2702.0605319042857	0.014125375446227554
2728.599667903898	0.016788040181225587
2755.1426589841067	0.01995262314968883
2781.144440116567	0.023713737056616554
2805.8047720463323	0.02818382931264455
2830.175462972007	0.033496543915782793
2854.223446011366	0.03981071705534969
2877.9653449744346	0.04731512589614813
2900.537171928665	0.056234132519034905
2922.1607375910417	0.06683439175686148
2943.6584994959094	0.07943282347242821
2965.1138553086175	0.09440608762859228
2986.5842733008476	0.11220184543019629
3007.117044144323	0.1333521432163324
3027.7328831793334	0.1584893192461114
3048.4943541147	0.18836490894898023
3069.3479725688467	0.22387211385683378
3090.0094121905277	0.26607250597988086
3109.4832527187873	0.3162277660168379
3128.8002000617917	0.3758374042884443
3147.8159734751466	0.4466835921509634
3166.349273803793	0.5308844442309879
3183.6847368390886	0.630957344480193
3199.5727082771737	0.7498942093324559
3214.771876805998	0.8912509381337458
3229.0905570017358	1.0592537251772898
3242.228008767188	1.2589254117941662
3252.9302354709253	1.4962356560944328
3261.9791408169162	1.7782794100389228
3269.486495388358	2.1134890398366473
3275.3691493000015	2.511886431509582
3279.622589627568	2.9853826189179573
3282.0403475016906	3.548133892335753
3283.6024590278216	4.216965034285823
3284.495011776594	5.011872336272725
3284.9249289252352	5.956621435290109
3285.083409716844	7.079457843841373
3285.1      	8.413951416451948
3285.1      	10.0        
