# T(K)	P(bar)
1218.5      	1e-08       
1218.6538793693364	1.1885022274370215e-08
1218.9190033263042	1.4125375446227554e-08
1219.2681631817402	1.6788040181225588e-08
1219.6815166786073	1.9952623149688826e-08
1220.1586135801206	2.3713737056616554e-08
1220.691640765907	2.818382931264461e-08
1221.336088491036	3.3496543915782795e-08
1222.104572074495	3.981071705534969e-08
1223.0101209362574	4.731512589614813e-08
1224.10736252431	5.6234132519034905e-08
1225.3838719821217	6.683439175686162e-08
1226.887928005218	7.94328234724282e-08
1228.6661432135732	9.440608762859226e-08
1230.7683414224766	1.1220184543019653e-07
1233.1700235886678	1.333521432163324e-07
1235.9829739922352	1.584893192461114e-07
1239.266947668993	1.883649089489802e-07
1243.0808435957013	2.2387211385683422e-07
1247.4684079941276	2.6607250597988136e-07
1252.4417120107983	3.162277660168379e-07
1258.1286343051345	3.7583740428844433e-07
1264.5799211986612	4.466835921509635e-07
1271.8326211553779	5.308844442309889e-07
1279.7911746397635	6.309573444801942e-07
1288.33321835982	7.498942093324558e-07
1297.5618661515068	8.912509381337459e-07
1307.3957048255888	1.0592537251772896e-06
1317.7052548263478	1.2589254117941687e-06
1328.0197196929935	1.4962356560944327e-06
1338.4145897224253	1.7782794100389227e-06
1349.0856233525624	2.1134890398366474e-06
1360.0234453471733	2.511886431509582e-06
1371.0984409170642	2.9853826189179636e-06
1382.0203014593565	3.5481338923357534e-06
1393.1501093985637	4.216965034285822e-06
1404.3177728244207	5.011872336272725e-06
1415.3453090655114	5.95662143529011e-06
1425.8050413117194	7.079457843841388e-06
1435.5186360938524	8.413951416451948e-06
1444.83084622384	1e-05       
1453.7947775789874	1.188502227437019e-05
1462.5316656099742	1.4125375446227555e-05
1470.8085706513173	1.678804018122562e-05
1478.9064341407461	1.9952623149688786e-05
1487.1556924007818	2.371373705661655e-05
1495.5636541526283	2.818382931264455e-05
1504.0248006716217	3.349654391578279e-05
1512.1870244861839	3.981071705534977e-05
1520.7255051469326	4.731512589614803e-05
1529.6592076551815	5.623413251903491e-05
1539.0227571813778	6.683439175686148e-05
1548.8179980221787	7.943282347242821e-05
1558.520350640948	9.440608762859246e-05
1568.4748416941434	0.00011220184543019629
1578.573928720504	0.0001333521432163324
1588.7149076467472	0.00015848931924611142
1598.542404259533	0.00018836490894898024
1607.4514775175946	0.00022387211385683424
1615.8818103659792	0.0002660725059798809
1623.8550545035187	0.0003162277660168379
1631.3725023541053	0.00037583740428844437
1637.7285060791892	0.0004466835921509635
1642.7572778643482	0.0005308844442309889
1646.6201687298853	0.000630957344480193
1649.2223936098142	0.0007498942093324559
1650.2635479862543	0.0008912509381337458
1648.4454307873375	0.0010592537251772895
1644.5137587799152	0.0012589254117941673
1638.7816170352307	0.0014962356560944345
1631.5474681357825	0.0017782794100389225
1622.8509918910304	0.0021134890398366475
1611.3813779862996	0.002511886431509582
1600.1866585153846	0.0029853826189179603
1590.7171323486739	0.0035481338923357567
1583.8974992670678	0.004216965034285822
1578.2808824129895	0.0050118723362727255
1575.2018689374809	0.005956621435290103
1575.9925974836958	0.00707945784384138
1581.1393933879997	0.008413951416451957
1590.0      	0.01        
1600.0790986915304	0.01188502227437019
1615.4736879361903	0.014125375446227554
1635.7561582680644	0.016788040181225587
1659.947556192398	0.01995262314968883
1685.3927242730929	0.023713737056616554
1713.7271949881995	0.02818382931264455
1746.2167903375475	0.033496543915782793
1781.9304689808348	0.03981071705534969
1819.2867962095215	0.04731512589614813
1855.025522220386	0.056234132519034905
1891.6484154994077	0.06683439175686148
1929.1109326902022	0.07943282347242821
1965.9324893290407	0.09440608762859228
2000.1103974375558	0.11220184543019629
2035.618196640558	0.1333521432163324
2068.888433785695	0.1584893192461114
2101.747480992155	0.18836490894898023
2134.4537978031817	0.22387211385683378
2164.6083313050945	0.26607250597988086
2199.1731358289358	0.3162277660168379
2238.084100540069	0.3758374042884443
2279.2676321315485	0.4466835921509634
2320.8084811009394	0.5308844442309879
2362.4923899448995	0.630957344480193
2400.554858239933	0.7498942093324559
2435.4792987940605	0.8912509381337458
2466.1634472579226	1.0592537251772898
2491.6832049236873	1.2589254117941662
2511.8468204524684	1.4962356560944328
2528.8209364389522	1.7782794100389228
2543.697383892614	2.1134890398366473
2557.2171629150985	2.511886431509582
2570.4590054443156	2.9853826189179573
2583.3831735575486	3.548133892335753
2596.9690165282923	4.216965034285823
2611.3428709627015	5.011872336272725
2626.468247897327	5.956621435290109
2641.523923100202	7.079457843841373
2656.7519195726622	8.413951416451948
2677.5      	10.0        
