# T(K)	P(bar)
2194.4      	1e-08       
2194.5538793693363	1.1885022274370215e-08
2194.928504989456	1.4125375446227554e-08
2195.5026937271323	1.6788040181225588e-08
2196.1951027917085	1.9952623149688826e-08
2196.751715843474	2.3713737056616554e-08
2197.5725783464254	2.818382931264461e-08
2198.4814513213814	3.3496543915782795e-08
2199.7922092602157	3.981071705534969e-08
2201.946094371094	4.731512589614813e-08
2205.394567933546	5.6234132519034905e-08
2209.187858770946	6.683439175686162e-08
2213.494654871803	7.94328234724282e-08
2218.380682250884	9.440608762859226e-08
2223.8697512751833	1.1220184543019653e-07
2229.8352198815296	1.333521432163324e-07
2236.4553081925446	1.584893192461114e-07
2243.6426093163986	1.883649089489802e-07
2251.333564486573	2.2387211385683422e-07
2259.4705020982	2.6607250597988136e-07
2267.7055874639295	3.162277660168379e-07
2276.2123347216207	3.7583740428844433e-07
2284.761704784937	4.466835921509635e-07
2293.4802361977822	5.308844442309889e-07
2304.1179066967134	6.309573444801942e-07
2319.0063402561036	7.498942093324558e-07
2334.753878936897	8.912509381337459e-07
2353.442521288173	1.0592537251772896e-06
2378.5832049236874	1.2589254117941687e-06
2398.7468204524685	1.4962356560944327e-06
2422.1206461426796	1.7782794100389227e-06
2446.853075591658	2.1134890398366474e-06
2471.338319873592	2.511886431509582e-06
2493.889578968805	2.9853826189179636e-06
2516.9485242099086	3.5481338923357534e-06
2540.402677824949	4.216965034285822e-06
2564.703122196701	5.011872336272725e-06
2590.0013767992805	5.95662143529011e-06
2614.8036206861225	7.079457843841388e-06
2639.6705556665142	8.413951416451948e-06
2664.292447679709	1e-05       
2689.2577751444937	1.188502227437019e-05
2715.4295093586948	1.4125375446227555e-05
2740.6506445318437	1.678804018122562e-05
2762.2040184190305	1.9952623149688786e-05
2784.9794371381427	2.371373705661655e-05
2810.0794496782355	2.818382931264455e-05
2836.5096469494006	3.349654391578279e-05
2856.76120226289	3.981071705534977e-05
2877.4748637318107	4.731512589614803e-05
2900.082875696219	5.623413251903491e-05
2924.271535972433	6.683439175686148e-05
2945.614011950763	7.943282347242821e-05
2962.2770979038173	9.440608762859246e-05
2980.4022385287253	0.00011220184543019629
2998.5014288108882	0.0001333521432163324
3014.4181625266624	0.00015848931924611142
3026.9187382181262	0.00018836490894898024
3039.699515645316	0.00022387211385683424
3051.678806523971	0.0002660725059798809
3061.25897559829	0.0003162277660168379
3066.576433587127	0.00037583740428844437
3068.3592151197727	0.0004466835921509635
3070.3235461775093	0.0005308844442309889
3069.1202554599213	0.000630957344480193
3062.9049918943097	0.0007498942093324559
3051.6925601480316	0.0008912509381337458
3038.0212844373364	0.0010592537251772895
3020.0463848834647	0.0012589254117941673
2997.395154858986	0.0014962356560944345
2969.683445649419	0.0017782794100389225
2936.2415415445985	0.0021134890398366475
2899.7940263340097	0.002511886431509582
2858.756262785469	0.0029853826189179603
2813.722983896654	0.0035481338923357567
2765.8054448433973	0.004216965034285822
2715.6459359937817	0.0050118723362727255
2661.4429855620597	0.005956621435290103
2602.5560714556486	0.00707945784384138
2539.257304436002	0.008413951416451957
2472.4      	0.01        
2409.848036364777	0.01188502227437019
2358.1947502227854	0.014125375446227554
2320.8093111865433	0.016788040181225587
2299.096838654053	0.01995262314968883
2289.713932924297	0.023713737056616554
2287.4250777022794	0.02818382931264455
2288.883533901617	0.033496543915782793
2293.121251039831	0.03981071705534969
2299.115786085672	0.04731512589614813
2306.2478564080157	0.056234132519034905
2314.5132892960814	0.06683439175686148
2323.573874315532	0.07943282347242821
2333.1129686780305	0.09440608762859228
2342.7657784564008	0.11220184543019629
2352.1058734641465	0.1333521432163324
2361.421261736139	0.1584893192461114
2370.522417201266	0.18836490894898023
2379.217549148469	0.22387211385683378
2387.274712861943	0.26607250597988086
2393.9736497373638	0.3162277660168379
2399.8204645071983	0.3758374042884443
2404.735685181255	0.4466835921509634
2408.6680629860753	0.5308844442309879
2411.5047751191237	0.630957344480193
2413.492832505676	0.7498942093324559
2415.105849104321	0.8912509381337458
2416.390222327399	1.0592537251772898
2417.3455078816805	1.2589254117941662
2418.121031555864	1.4962356560944328
2418.6588622263776	1.7782794100389228
2419.054324769418	2.1134890398366473
2419.3365716716985	2.511886431509582
2419.4970788538703	2.9853826189179573
2419.5754950806995	3.548133892335753
2419.6      	4.216965034285823
2419.6325019627657	5.011872336272725
2419.7      	5.956621435290109
2419.7      	7.079457843841373
2419.768949088751	8.413951416451948
2419.9      	10.0        
