# T(K)	P(bar)
1537.1      	1e-08       
1554.3344893656706	1.1885022274370215e-08
1563.825315694509	1.4125375446227554e-08
1569.8215498170591	1.6788040181225588e-08
1575.551027917087	1.9952623149688826e-08
1581.117158434739	2.3713737056616554e-08
1586.656876449329	2.818382931264461e-08
1592.385616481852	3.3496543915782795e-08
1598.3320045214653	3.981071705534969e-08
1604.5371282740598	4.731512589614813e-08
1610.885454604937	5.6234132519034905e-08
1617.4193599106086	6.683439175686162e-08
1624.1785588787607	7.94328234724282e-08
1631.1815012475063	9.440608762859226e-08
1638.507228829445	1.1220184543019653e-07
1645.789748946283	1.333521432163324e-07
1653.1574349805883	1.584893192461114e-07
1660.7513232948115	1.883649089489802e-07
1668.585518472262	2.2387211385683422e-07
1676.4831343894298	2.6607250597988136e-07
1684.1949415550744	3.162277660168379e-07
1692.0021224742006	3.7583740428844433e-07
1699.9412588883683	4.466835921509635e-07
1708.0223971835424	5.308844442309889e-07
1715.9021531086767	6.309573444801942e-07
1723.7695381491217	7.498942093324558e-07
1731.8112476525016	8.912509381337459e-07
1740.039445364741	1.0592537251772896e-06
1748.4914851221472	1.2589254117941687e-06
1756.8671408033329	1.4962356560944327e-06
1765.498761559042	1.7782794100389227e-06
1774.436837120764	2.1134890398366474e-06
1783.6394427943426	2.511886431509582e-06
1793.0291129514242	2.9853826189179636e-06
1802.2594096839632	3.5481338923357534e-06
1811.7801640281352	4.216965034285822e-06
1821.562745345702	5.011872336272725e-06
1831.6203801402762	5.95662143529011e-06
1841.9216315948752	7.079457843841388e-06
1852.170228803859	8.413951416451948e-06
1862.8170154686077	1e-05       
1873.8711781304237	1.188502227437019e-05
1885.3146683459076	1.4125375446227555e-05
1896.7930177900341	1.678804018122562e-05
1908.4468418774293	1.9952623149688786e-05
1920.5102642879428	2.371373705661655e-05
1933.0176030340301	2.818382931264455e-05
1945.9989746556987	3.349654391578279e-05
1959.0123314921234	3.981071705534977e-05
1972.5710712239652	4.731512589614803e-05
1986.808729516067	5.623413251903491e-05
2001.7897369948673	6.683439175686148e-05
2017.3187773522345	7.943282347242821e-05
2033.0043772282015	9.440608762859246e-05
2049.5077419081317	0.00011220184543019629
2066.895714553346	0.0001333521432163324
2085.2406226817543	0.00015848931924611142
2104.109416178303	0.00018836490894898024
2123.4944454374677	0.00022387211385683424
2143.961409495946	0.0002660725059798809
2165.6110157340354	0.0003162277660168379
2188.500283031534	0.00037583740428844437
2211.831467437024	0.0004466835921509635
2236.0583479198253	0.0005308844442309889
2261.395671371901	0.000630957344480193
2287.816448256677	0.0007498942093324559
2315.046639640495	0.0008912509381337458
2341.889786208769	0.0010592537251772895
2369.469871021432	0.0012589254117941673
2397.68598967112	0.0014962356560944345
2426.342261925429	0.0017782794100389225
2454.408162533493	0.0021134890398366475
2481.4110330050744	0.002511886431509582
2508.3944403426217	0.0029853826189179603
2535.2776487853835	0.0035481338923357567
2562.0336144500243	0.004216965034285822
2587.6204245630474	0.0050118723362727255
2612.899761139314	0.005956621435290103
2638.4120316943495	0.00707945784384138
2664.1431388867995	0.008413951416451957
2690.0      	0.01        
2714.543759409147	0.01188502227437019
2739.3107644411884	0.014125375446227554
2764.159749904241	0.016788040181225587
2788.903006156576	0.01995262314968883
2812.9168835327314	0.023713737056616554
2835.7191465632227	0.02818382931264455
2858.309468882808	0.033496543915782793
2880.641990232785	0.03981071705534969
2902.70802935121	0.04731512589614813
2923.7123683225077	0.056234132519034905
2944.231894310596	0.06683439175686148
2964.835676636282	0.07943282347242821
2985.539657396749	0.09440608762859228
3006.3688976876674	0.11220184543019629
3026.361332456314	0.1333521432163324
3046.4316324889724	0.1584893192461114
3066.6044501722668	0.18836490894898023
3086.803834525914	0.22387211385683378
3106.747309064216	0.26607250597988086
3125.599657394381	0.3162277660168379
3144.343051488597	0.3758374042884443
3162.955750526862	0.4466835921509634
3181.3799457192995	0.5308844442309879
3198.951801432349	0.630957344480193
3215.801860572151	0.7498942093324559
3232.501572883741	0.8912509381337458
3248.888668402083	1.0592537251772898
3264.7464465992534	1.2589254117941662
3279.1711869390733	1.4962356560944328
3292.548142338563	1.7782794100389228
3305.125760045525	2.1134890398366473
3316.7954444962297	2.511886431509582
3327.3086649285174	2.9853826189179573
3335.7289637962667	3.548133892335753
3343.1077596298855	4.216965034285823
3349.3776315052964	5.011872336272725
3354.510758668258	5.956621435290109
3358.393538062684	7.079457843841373
3361.1442690175277	8.413951416451948
3363.9      	10.0        
