# T(K)	P(bar)
2773.8      	1e-08       
2765.259695001833	1.1885022274370215e-08
2759.4149501054358	1.4125375446227554e-08
2754.9511029099017	1.6788040181225588e-08
2750.888624910444	1.9952623149688826e-08
2747.3103981490963	2.3713737056616554e-08
2744.050155404558	2.818382931264461e-08
2740.9102832055105	3.3496543915782795e-08
2737.8478419244716	3.981071705534969e-08
2734.801100315873	4.731512589614813e-08
2731.8228731483014	5.6234132519034905e-08
2728.813470158662	6.683439175686162e-08
2725.624143989564	7.94328234724282e-08
2722.241911484722	9.440608762859226e-08
2718.6941810232624	1.1220184543019653e-07
2714.975447346579	1.333521432163324e-07
2711.1276657996905	1.584893192461114e-07
2707.1156243741816	1.883649089489802e-07
2702.9511870805063	2.2387211385683422e-07
2698.7231704783862	2.6607250597988136e-07
2694.7066303913616	3.162277660168379e-07
2690.595875088674	3.7583740428844433e-07
2686.3438689221757	4.466835921509635e-07
2681.9172336053807	5.308844442309889e-07
2677.4257727280547	6.309573444801942e-07
2672.817918735811	7.498942093324558e-07
2667.8452199508242	8.912509381337459e-07
2662.4344808416563	1.0592537251772896e-06
2656.5268353702218	1.2589254117941687e-06
2650.1675412419136	1.4962356560944327e-06
2643.317066604341	1.7782794100389227e-06
2635.9190431492616	2.1134890398366474e-06
2627.9799872358467	2.511886431509582e-06
2619.553360171799	2.9853826189179636e-06
2610.9445509616344	3.5481338923357534e-06
2601.8338250459506	4.216965034285822e-06
2592.1072468032357	5.011872336272725e-06
2581.6923686214013	5.95662143529011e-06
2570.83643439617	7.079457843841388e-06
2559.357636687377	8.413951416451948e-06
2546.8606915377613	1e-05       
2533.21340298593	1.188502227437019e-05
2518.2918888260874	1.4125375446227555e-05
2502.3627508219934	1.678804018122562e-05
2484.848208783535	1.9952623149688786e-05
2465.434043311275	2.371373705661655e-05
2444.044799522766	2.818382931264455e-05
2420.737371633401	3.349654391578279e-05
2397.0207213042963	3.981071705534977e-05
2372.4647690385177	4.731512589614803e-05
2347.372172117692	5.623413251903491e-05
2322.4765382382707	6.683439175686148e-05
2299.7802484851954	7.943282347242821e-05
2283.881983109606	9.440608762859246e-05
2271.974568658063	0.00011220184543019629
2263.848571353447	0.0001333521432163324
2259.2018881270865	0.00015848931924611142
2258.337068425161	0.00018836490894898024
2260.867350249747	0.00022387211385683424
2266.0856068139824	0.0002660725059798809
2273.728207297008	0.0003162277660168379
2283.388510317726	0.00037583740428844437
2294.7828096785465	0.0004466835921509635
2308.9679984014165	0.0005308844442309889
2324.848300875681	0.000630957344480193
2341.4727617532512	0.0007498942093324559
2357.7307877853546	0.0008912509381337458
2372.6914570902613	0.0010592537251772895
2387.2457483059607	0.0012589254117941673
2401.343028585926	0.0014962356560944345
2414.8193846499707	0.0017782794100389225
2426.7572747677673	0.0021134890398366475
2436.9949406609157	0.002511886431509582
2446.1246484359544	0.0029853826189179603
2454.1336320153105	0.0035481338923357567
2461.1360424606764	0.004216965034285822
2467.220710719261	0.0050118723362727255
2473.1534826048855	0.005956621435290103
2479.1287481752174	0.00707945784384138
2485.2364734331995	0.008413951416451957
2491.6      	0.01        
2498.447631935467	0.01188502227437019
2505.9203323260303	0.014125375446227554
2513.9650594528925	0.016788040181225587
2522.5080585542382	0.01995262314968883
2531.334351232229	0.023713737056616554
2540.24718983503	0.02818382931264455
2549.3691503834684	0.033496543915782793
2558.556474226585	0.03981071705534969
2567.6966990523806	0.04731512589614813
2576.6313805550963	0.056234132519034905
2585.404560822338	0.06683439175686148
2594.2356160278296	0.07943282347242821
2603.204094983112	0.09440608762859228
2612.4767610372433	0.11220184543019629
2622.202810384153	0.1333521432163324
2632.996978388806	0.1584893192461114
2644.8618408558677	0.18836490894898023
2657.9948682253835	0.22387211385683378
2672.9125871800334	0.26607250597988086
2689.748871421163	0.3162277660168379
2708.7104123092113	0.3758374042884443
2730.0226619236823	0.4466835921509634
2754.098838086069	0.5308844442309879
2781.8355789425414	0.630957344480193
2813.043624680766	0.7498942093324559
2848.1206930804447	0.8912509381337458
2887.2632639571543	1.0592537251772898
2930.6031681718086	1.2589254117941662
2976.669274418331	1.4962356560944328
3021.930204845404	1.7782794100389228
3065.107895254907	2.1134890398366473
3105.1566269830305	2.511886431509582
3141.832518109408	2.9853826189179573
3171.867586392181	3.548133892335753
3198.412131389813	4.216965034285823
3221.9755299467165	5.011872336272725
3243.0543619394093	5.956621435290109
3261.2004125786643	7.079457843841373
3276.2003268626554	8.413951416451948
3291.7      	10.0        
