# T(K)	P(bar)
1125.9      	1e-08       
1127.1310349546907	1.1885022274370215e-08
1128.5402657999452	1.4125375446227554e-08
1130.173550636005	1.6788040181225588e-08
1132.0396528275312	1.9952623149688826e-08
1134.0275565838353	2.3713737056616554e-08
1136.307031853887	2.818382931264461e-08
1138.7989911337988	3.3496543915782795e-08
1141.5244697051196	3.981071705534969e-08
1144.5224970276106	4.731512589614813e-08
1147.7358473926224	5.6234132519034905e-08
1151.1690728938515	6.683439175686162e-08
1154.9141142981382	7.94328234724282e-08
1158.9976106440972	9.440608762859226e-08
1163.430069158907	1.1220184543019653e-07
1168.0010126364969	1.333521432163324e-07
1172.9340344604025	1.584893192461114e-07
1178.2004215034897	1.883649089489802e-07
1183.7851350196704	2.2387211385683422e-07
1189.688403483008	2.6607250597988136e-07
1195.7630038285088	3.162277660168379e-07
1202.1347616535866	3.7583740428844433e-07
1208.849809724519	4.466835921509635e-07
1215.940605408859	5.308844442309889e-07
1223.1899808599826	6.309573444801942e-07
1230.5713300227028	7.498942093324558e-07
1238.3217088631327	8.912509381337459e-07
1246.463630558691	1.0592537251772896e-06
1254.9960359103152	1.2589254117941687e-06
1263.4492439589194	1.4962356560944327e-06
1272.2183823011676	1.7782794100389227e-06
1281.3525806978275	2.1134890398366474e-06
1290.8674436452861	2.511886431509582e-06
1300.8188889399707	2.9853826189179636e-06
1310.8898555716598	3.5481338923357534e-06
1321.4826230559565	4.216965034285822e-06
1332.6452865637802	5.011872336272725e-06
1344.407062780479	5.95662143529011e-06
1356.5308433385837	7.079457843841388e-06
1368.900803288882	8.413951416451948e-06
1381.8337579617835	1e-05       
1395.2944634969247	1.188502227437019e-05
1409.2148410127875	1.4125375446227555e-05
1422.9576267418097	1.678804018122562e-05
1436.9236978795677	1.9952623149688786e-05
1451.2197331070101	2.371373705661655e-05
1465.8533650146808	2.818382931264455e-05
1480.9213445874045	3.349654391578279e-05
1495.3977415415336	3.981071705534977e-05
1509.9319275435087	4.731512589614803e-05
1524.643722685508	5.623413251903491e-05
1539.615641174486	6.683439175686148e-05
1554.7465010098695	7.943282347242821e-05
1569.5452962147779	9.440608762859246e-05
1584.861083245628	0.00011220184543019629
1600.7014288108883	0.0001333521432163324
1617.0908833688832	0.00015848931924611142
1633.758317624168	0.00018836490894898024
1650.7776684193666	0.00022387211385683424
1668.5079260599537	0.0002660725059798809
1686.933488482276	0.0003162277660168379
1706.0042142645552	0.00037583740428844437
1724.7621764776075	0.0004466835921509635
1743.8150907564352	0.0005308844442309889
1763.2684696055667	0.000630957344480193
1783.0254785864684	0.0007498942093324559
1802.80741173883	0.0008912509381337458
1821.3038644415603	0.0010592537251772895
1839.5495511403112	0.0012589254117941673
1857.5678092085468	0.0014962356560944345
1875.3595171151906	0.0017782794100389225
1892.436234104886	0.0021134890398366475
1908.5719050574655	0.002511886431509582
1924.781098858006	0.0029853826189179603
1941.2048760363627	0.0035481338923357567
1957.985141046967	0.004216965034285822
1974.5229573395306	0.0050118723362727255
1991.4706075404586	0.005956621435290103
2009.0463925759793	0.00707945784384138
2027.2899712687995	0.008413951416451957
2046.3      	0.01        
2065.150222743702	0.01188502227437019
2084.7614620518966	0.014125375446227554
2105.2126486322313	0.016788040181225587
2126.5090088766397	0.01995262314968883
2148.2169178954823	0.023713737056616554
2169.976333821668	0.02818382931264455
2192.5971030970622	0.033496543915782793
2216.061887863409	0.03981071705534969
2240.346257941143	0.04731512589614813
2264.7206960757458	0.056234132519034905
2289.5935676603126	0.06683439175686148
2315.464565797527	0.07943282347242821
2342.334059688321	0.09440608762859228
2370.1819597560216	0.11220184543019629
2397.661908704432	0.1333521432163324
2425.8077143715836	0.1584893192461114
2454.4906293807285	0.18836490894898023
2483.4815370554197	0.22387211385683378
2512.279914288728	0.26607250597988086
2539.624093104963	0.3162277660168379
2566.6492588617657	0.3758374042884443
2593.3367864669463	0.4466835921509634
2619.681894959171	0.5308844442309879
2644.975911478852	0.630957344480193
2669.605030700203	0.7498942093324559
2694.6262062990345	0.8912509381337458
2720.136002839772	1.0592537251772898
2746.1653537901047	1.2589254117941662
2771.137216098826	1.4962356560944328
2795.859887626931	1.7782794100389228
2820.560169629886	2.1134890398366473
2845.0491790830265	2.511886431509582
2868.9647492267036	2.9853826189179573
2890.840602918713	3.548133892335753
2912.0837706952207	4.216965034285823
2932.495482840342	5.011872336272725
2951.916968551557	5.956621435290109
2969.825298003398	7.079457843841373
2989.2820176314585	8.413951416451948
3015.3      	10.0        
