# T(K)	P(bar)
2763.6      	1e-08       
2756.1368505871874	1.1885022274370215e-08
2751.9289700632617	1.4125375446227554e-08
2749.526449363995	1.6788040181225588e-08
2747.7962083034813	1.9952623149688826e-08
2746.603466049699	2.3713737056616554e-08
2745.6571872584454	2.818382931264461e-08
2744.8154572321823	3.3496543915782795e-08
2744.023116295914	3.981071705534969e-08
2743.229207969549	4.731512589614813e-08
2742.5238383772294	5.6234132519034905e-08
2741.698671070392	6.683439175686162e-08
2740.7926125684467	7.94328234724282e-08
2739.7951536542296	9.440608762859226e-08
2738.6625224457384	1.1220184543019653e-07
2737.345470935247	1.333521432163324e-07
2735.79361963587	1.584893192461114e-07
2733.994050179895	1.883649089489802e-07
2731.935555194994	2.2387211385683422e-07
2729.622112148551	2.6607250597988136e-07
2727.1656187023764	3.162277660168379e-07
2724.463235909288	3.7583740428844433e-07
2721.555763982594	4.466835921509635e-07
2718.5012650984186	5.308844442309889e-07
2715.4281602876163	6.309573444801942e-07
2712.2789111361376	7.498942093324558e-07
2708.9749160285673	8.912509381337459e-07
2705.439110690404	1.0592537251772896e-06
2701.5679098034307	1.2589254117941687e-06
2697.6127390650927	1.4962356560944327e-06
2693.4104295915417	1.7782794100389227e-06
2689.000872035795	2.1134890398366474e-06
2684.439421520753	2.511886431509582e-06
2679.7847132377556	2.9853826189179636e-06
2675.245790238718	3.5481338923357534e-06
2670.6436611572362	4.216965034285822e-06
2666.0148861595944	5.011872336272725e-06
2661.364596705567	5.95662143529011e-06
2656.689413353095	7.079457843841388e-06
2652.0630546749508	8.413951416451948e-06
2647.3665150136485	1e-05       
2642.553429266998	1.188502227437019e-05
2637.5582396317136	1.4125375446227555e-05
2632.5608630029783	1.678804018122562e-05
2627.408354928558	1.9952623149688786e-05
2622.0235993579745	2.371373705661655e-05
2616.3957452081727	2.818382931264455e-05
2610.5093429083504	3.349654391578279e-05
2604.5801803260742	3.981071705534977e-05
2598.357063811698	4.731512589614803e-05
2591.7206010891728	5.623413251903491e-05
2584.6218177409096	6.683439175686148e-05
2577.215660032011	7.943282347242821e-05
2569.612581639255	9.440608762859246e-05
2561.570637672773	0.00011220184543019629
2553.059999868532	0.0001333521432163324
2544.0386079202967	0.00015848931924611142
2534.6828311449244	0.00018836490894898024
2525.19794925076	0.00022387211385683424
2515.2868588620263	0.0002660725059798809
2504.9737532503777	0.0003162277660168379
2494.348044876118	0.00037583740428844437
2483.8063801613444	0.0004466835921509635
2473.113485673219	0.0005308844442309889
2462.1677994162123	0.000630957344480193
2451.0049918943096	0.0007498942093324559
2439.7925601480315	0.0008912509381337458
2429.0885951775963	0.0010592537251772895
2418.4058919693407	0.0012589254117941673
2407.7130653186314	0.0014962356560944345
2397.0311217228723	0.0017782794100389225
2386.8325268540266	0.0021134890398366475
2376.940366118483	0.002511886431509582
2366.9548565292876	0.0029853826189179603
2356.9018450689873	0.0035481338923357567
2346.812394581241	0.004216965034285822
2337.217340788857	0.0050118723362727255
2327.9136259212974	0.005956621435290103
2318.7170257874996	0.00707945784384138
2309.6800556428	0.008413951416451957
2300.9      	0.01        
2293.206031533183	0.01188502227437019
2285.808172663426	0.014125375446227554
2278.8757564558086	0.016788040181225587
2272.616902648419	0.01995262314968883
2267.448352882028	0.023713737056616554
2263.558514638651	0.02818382931264455
2260.5979174197646	0.033496543915782793
2258.6400511846878	0.03981071705534969
2257.739328905806	0.04731512589614813
2258.131200901539	0.056234132519034905
2259.6026578592164	0.06683439175686148
2262.0067268665853	0.07943282347242821
2265.35406116613	0.09440608762859228
2269.6515596156332	0.11220184543019629
2274.9777294960836	0.1333521432163324
2281.1003652299446	0.1584893192461114
2287.933895337986	0.18836490894898023
2295.5136411770914	0.22387211385683378
2304.0494482794843	0.26607250597988086
2313.8375251904954	0.3162277660168379
2324.7490988123327	0.3758374042884443
2336.8081702851887	0.4466835921509634
2350.1527786205656	0.5308844442309879
2365.2031124375726	0.630957344480193
2381.768228593221	0.7498942093324559
2399.755115934907	0.8912509381337458
2419.8411506636253	1.0592537251772898
2443.1700219179697	1.2589254117941662
2469.9255886773135	1.4962356560944328
2499.844717311961	1.7782794100389228
2533.66309206012	2.1134890398366473
2571.8646363434095	2.511886431509582
2614.720053983422	2.9853826189179573
2659.8156123707204	3.548133892335753
2705.4959020850333	4.216965034285823
2751.2586207391673	5.011872336272725
2796.3937007246627	5.956621435290109
2838.311870105299	7.079457843841373
2877.4503407304123	8.413951416451948
2918.3      	10.0        
