# T(K)	P(bar)
2080.4      	1e-08       
2081.707974639359	1.1885022274370215e-08
2083.1950166315214	1.4125375446227554e-08
2085.0080811813973	1.6788040181225588e-08
2087.1668250537336	1.9952623149688826e-08
2089.313761110542	2.3713737056616554e-08
2092.1689070149237	2.818382931264461e-08
2095.092808240926	3.3496543915782795e-08
2098.7443673357443	3.981071705534969e-08
2104.0944438972847	4.731512589614813e-08
2112.0102582110944	5.6234132519034905e-08
2120.2857749452437	6.683439175686162e-08
2129.062462885718	7.94328234724282e-08
2138.3129686780303	9.440608762859226e-08
2147.968956565875	1.1220184543019653e-07
2157.4207379941117	1.333521432163324e-07
2166.9084954487553	1.584893192461114e-07
2176.4123211436995	1.883649089489802e-07
2185.7616871914024	2.2387211385683422e-07
2194.536815988255	2.6607250597988136e-07
2205.869462917061	3.162277660168379e-07
2219.134841678303	3.7583740428844433e-07
2232.938281759331	4.466835921509635e-07
2245.9335957753137	5.308844442309889e-07
2257.753229663015	6.309573444801942e-07
2268.4260508654957	7.498942093324558e-07
2278.6857131249294	8.912509381337459e-07
2291.673742905629	1.0592537251772896e-06
2311.7333809332326	1.2589254117941687e-06
2334.4562245868196	1.4962356560944327e-06
2354.7722135078443	1.7782794100389227e-06
2374.545298088618	2.1134890398366474e-06
2395.641752456612	2.511886431509582e-06
2420.841380057668	2.9853826189179636e-06
2445.4584258239024	3.5481338923357534e-06
2467.3697816211347	4.216965034285822e-06
2489.870620233935	5.011872336272725e-06
2515.5002396030404	5.95662143529011e-06
2542.8381761556298	7.079457843841388e-06
2565.005744850229	8.413951416451948e-06
2587.4424021838036	1e-05       
2613.0512306925602	1.188502227437019e-05
2643.6088018414316	1.4125375446227555e-05
2668.5956849851086	1.678804018122562e-05
2690.917322686624	1.9952623149688786e-05
2717.918757972776	2.371373705661655e-05
2748.4412683683104	2.818382931264455e-05
2775.1225979624937	3.349654391578279e-05
2796.2211765020224	3.981071705534977e-05
2822.1664849757476	4.731512589614803e-05
2849.417732254485	5.623413251903491e-05
2874.838163495747	6.683439175686148e-05
2895.4639145345063	7.943282347242821e-05
2916.5156831398394	9.440608762859246e-05
2939.191231769913	0.00011220184543019629
2960.448571682117	0.0001333521432163324
2977.111131392575	0.00015848931924611142
2988.668267409211	0.00018836490894898024
3001.0392863526577	0.00022387211385683424
3013.575010075968	0.0002660725059798809
3024.448719497863	0.0003162277660168379
3031.1329279776123	0.00037583740428844437
3034.2334175996043	0.0004466835921509635
3037.5783089157853	0.0005308844442309889
3037.942458408802	0.000630957344480193
3033.5668863146925	0.0007498942093324559
3024.5168521194823	0.0008912509381337458
3013.443498566557	0.0010592537251772895
2999.3196507492557	0.0012589254117941673
2980.957443919199	0.0014962356560944345
2957.3552581947715	0.0017782794100389225
2928.5778277121367	0.0021134890398366475
2897.6327237820624	0.002511886431509582
2862.914391434928	0.0029853826189179603
2824.9342911859094	0.0035481338923357567
2784.804230838071	0.004216965034285822
2744.395792915675	0.0050118723362727255
2702.3459412174034	0.005956621435290103
2658.344536736193	0.00707945784384138
2612.447275704801	0.008413951416451957
2564.6      	0.01        
2516.512697082393	0.01188502227437019
2469.2495010543616	0.014125375446227554
2423.9383763720575	0.016788040181225587
2381.9590768782377	0.01995262314968883
2346.0177769642564	0.023713737056616554
2321.3380406952224	0.02818382931264455
2304.9318584827324	0.033496543915782793
2295.8986465907938	0.03981071705534969
2292.5471946869675	0.04731512589614813
2293.017441081847	0.056234132519034905
2296.6704018234595	0.06683439175686148
2302.3362765927977	0.07943282347242821
2309.455699159375	0.09440608762859228
2317.4372237462085	0.11220184543019629
2325.773837472131	0.1333521432163324
2334.591975627361	0.1584893192461114
2343.6673691724827	0.18836490894898023
2352.8257485438166	0.22387211385683378
2361.9199729332827	0.26607250597988086
2370.4244357105817	0.3162277660168379
2378.5021224742004	0.3758374042884443
2385.8992523538077	0.4466835921509634
2392.374782141138	0.5308844442309879
2397.5754210517266	0.630957344480193
2401.4192969902815	0.7498942093324559
2404.387851235219	0.8912509381337458
2406.583703878998	1.0592537251772898
2408.163711034352	1.2589254117941662
2409.2494441782096	1.4962356560944328
2410.1579140816916	1.7782794100389228
2410.9086495388356	2.1134890398366473
2411.4914291792456	2.511886431509582
2411.8926971346764	2.9853826189179573
2412.126485242099	3.548133892335753
2412.2534972685216	4.216965034285823
2412.332501962766	5.011872336272725
2412.4      	5.956621435290109
2412.4      	7.079457843841373
2412.468949088751	8.413951416451948
2412.5      	10.0        
