# T(K)	P(bar)
1374.2      	1e-08       
1377.5084064407315	1.1885022274370215e-08
1381.5112957366835	1.4125375446227554e-08
1386.1861213626228	1.6788040181225588e-08
1391.5868890480995	1.9952623149688826e-08
1397.9481810682732	2.3713737056616554e-08
1405.2425019324387	2.818382931264461e-08
1413.6722418299048	3.3496543915782795e-08
1423.3102416347576	3.981071705534969e-08
1434.2113302988296	4.731512589614813e-08
1446.280987767411	5.6234132519034905e-08
1459.6212628737308	6.683439175686162e-08
1474.329610334665	7.94328234724282e-08
1490.4033436204547	9.440608762859226e-08
1507.8070492635354	1.1220184543019653e-07
1525.6259814643092	1.333521432163324e-07
1544.2020975294984	1.584893192461114e-07
1563.7044501722664	1.883649089489802e-07
1584.1280492593653	2.2387211385683422e-07
1605.1883583718122	2.6607250597988136e-07
1626.2881398609036	3.162277660168379e-07
1648.1900278267294	3.7583740428844433e-07
1670.8022160271132	4.466835921509635e-07
1693.9240559449313	5.308844442309889e-07
1716.4601578908153	6.309573444801942e-07
1737.7848377731307	7.498942093324558e-07
1758.7295814073343	8.912509381337459e-07
1779.6090763967272	1.0592537251772896e-06
1800.9241620172	1.2589254117941687e-06
1821.7857488527459	1.4962356560944327e-06
1842.5693690737874	1.7782794100389227e-06
1863.7555031280617	2.1134890398366474e-06
1885.702892396234	2.511886431509582e-06
1908.976433811222	2.9853826189179636e-06
1933.2564455011034	3.5481338923357534e-06
1958.5471040750274	4.216965034285822e-06
1985.3706987445598	5.011872336272725e-06
2014.3234627339164	5.95662143529011e-06
2045.623419076736	7.079457843841388e-06
2075.2385519028126	8.413951416451948e-06
2106.4149226569607	1e-05       
2138.8354977268514	1.188502227437019e-05
2171.5333922787718	1.4125375446227555e-05
2202.4546601690718	1.678804018122562e-05
2234.2380509627706	1.9952623149688786e-05
2264.73946621402	2.371373705661655e-05
2293.0794496782355	2.818382931264455e-05
2319.552032083159	3.349654391578279e-05
2342.5756634091413	3.981071705534977e-05
2363.457921780313	4.731512589614803e-05
2382.363504107627	5.623413251903491e-05
2399.5934711434006	6.683439175686148e-05
2415.6799642315455	7.943282347242821e-05
2430.0441656236144	9.440608762859246e-05
2443.9658004279763	0.00011220184543019629
2457.3864287615875	0.0001333521432163324
2470.2824854819664	0.00015848931924611142
2482.468581281821	0.00018836490894898024
2494.2887131210123	0.00022387211385683424
2506.3444719099684	0.0002660725059798809
2518.493064537455	0.0003162277660168379
2530.3718943205245	0.00037583740428844437
2541.378632478596	0.0004466835921509635
2552.303710186589	0.0005308844442309889
2562.95847197066	0.000630957344480193
2573.169971291347	0.0007498942093324559
2582.8607158720583	0.0008912509381337458
2591.656835609741	0.0010592537251772895
2600.2335563772886	0.0012589254117941673
2608.4933323392206	0.0014962356560944345
2616.290638838063	0.0017782794100389225
2623.1687609589126	0.0021134890398366475
2628.7357372789547	0.002511886431509582
2633.3472623386324	0.0029853826189179603
2636.7853189137886	0.0035481338923357567
2638.7608679842983	0.004216965034285822
2638.214808012374	0.0050118723362727255
2635.5895685947326	0.005956621435290103
2631.3299193718476	0.00707945784384138
2625.3939949816004	0.008413951416451957
2617.5      	0.01        
2606.3437457231153	0.01188502227437019
2593.6376078004932	0.014125375446227554
2579.37526854848	0.016788040181225587
2563.266505081904	0.01995262314968883
2544.341661321887	0.023713737056616554
2524.087885290664	0.02818382931264455
2503.8441594206456	0.033496543915782793
2484.1932329539695	0.03981071705534969
2465.500991269174	0.04731512589614813
2448.572121053501	0.056234132519034905
2436.8015097921884	0.06683439175686148
2429.220780556271	0.07943282347242821
2425.5040273491477	0.09440608762859228
2424.9120223245986	0.11220184543019629
2428.848756584062	0.1333521432163324
2435.976081882611	0.1584893192461114
2445.355891035763	0.18836490894898023
2456.286285377445	0.22387211385683378
2468.172596202273	0.26607250597988086
2481.2014006436266	0.3162277660168379
2494.932799228819	0.3758374042884443
2509.0899538714643	0.4466835921509634
2523.430090958541	0.5308844442309879
2537.534854064531	0.630957344480193
2550.51709149759	0.7498942093324559
2562.2781764664587	0.8912509381337458
2572.6329269163402	1.0592537251772898
2581.6095709351225	1.2589254117941662
2588.5892840027773	1.4962356560944328
2594.2072948612126	1.7782794100389228
2598.71331604066	2.1134890398366473
2602.1851467471706	2.511886431509582
2604.7532616619283	2.9853826189179573
2606.1589114525946	3.548133892335753
2607.134972685214	4.216965034285823
2607.6975058882967	5.011872336272725
2607.9249289252352	5.956621435290109
2608.083409716844	7.079457843841373
2608.1      	8.413951416451948
2608.1      	10.0        
