# T(K)	P(bar)
2747.3      	1e-08       
2738.9905140558376	1.1885022274370215e-08
2731.9556809791866	1.4125375446227554e-08
2725.711184910245	1.6788040181225588e-08
2719.835385969812	1.9952623149688826e-08
2714.189739301907	2.3713737056616554e-08
2708.9240611311893	2.818382931264461e-08
2703.6535634556208	3.3496543915782795e-08
2698.2341257009866	3.981071705534969e-08
2692.58872422452	4.731512589614813e-08
2687.494388279989	5.6234132519034905e-08
2682.647055124027	6.683439175686162e-08
2677.94762741416	7.94328234724282e-08
2673.4241640948862	9.440608762859226e-08
2669.0875673372157	1.1220184543019653e-07
2665.13641280574	1.333521432163324e-07
2661.400005851709	1.584893192461114e-07
2657.8417663094197	1.883649089489802e-07
2654.491417152061	2.2387211385683422e-07
2651.4600090222393	2.6607250597988136e-07
2648.8926692868254	3.162277660168379e-07
2646.46936325774	3.7583740428844433e-07
2644.1568787240167	4.466835921509635e-07
2641.913728788608	5.308844442309889e-07
2639.7073971295704	6.309573444801942e-07
2637.4089593679055	7.498942093324558e-07
2634.8778405807275	8.912509381337459e-07
2631.863295884354	1.0592537251772896e-06
2628.072460591599	1.2589254117941687e-06
2624.194842220679	1.4962356560944327e-06
2619.950619220479	1.7782794100389227e-06
2615.346547266377	2.1134890398366474e-06
2610.3931348339606	2.511886431509582e-06
2605.0963978222735	2.9853826189179636e-06
2599.8663345124205	3.5481338923357534e-06
2594.348196666457	4.216965034285822e-06
2588.5298508298133	5.011872336272725e-06
2582.415307453217	5.95662143529011e-06
2576.1553161846527	7.079457843841388e-06
2569.7082765449313	8.413951416451948e-06
2562.849772520473	1e-05       
2555.603586308029	1.188502227437019e-05
2548.0097494245524	1.4125375446227555e-05
2540.2013484421536	1.678804018122562e-05
2532.00588025904	1.9952623149688786e-05
2523.3155760972722	2.371373705661655e-05
2514.0860399369462	2.818382931264455e-05
2504.245765207713	3.349654391578279e-05
2494.1584886066976	3.981071705534977e-05
2483.3358402624826	4.731512589614803e-05
2471.7460450754934	5.623413251903491e-05
2459.3992954196488	6.683439175686148e-05
2446.4982465073745	7.943282347242821e-05
2433.501275727617	9.440608762859246e-05
2420.2334133749655	0.00011220184543019629
2407.0424998110143	0.0001333521432163324
2394.2977878685992	0.00015848931924611142
2382.8192718248656	0.00018836490894898024
2372.802777281266	0.00022387211385683424
2363.9617023560204	0.0002660725059798809
2356.411763284314	0.0003162277660168379
2350.227193629104	0.00037583740428844437
2346.196557120514	0.0004466835921509635
2343.9694434720113	0.0005308844442309889
2343.2868643065635	0.000630957344480193
2344.096108821893	0.0007498942093324559
2346.418683969336	0.0008912509381337458
2350.654235036364	0.0010592537251772895
2356.273004723917	0.0012589254117941673
2363.162086558016	0.0014962356560944345
2371.198078477462	0.0017782794100389225
2380.210790222023	0.0021134890398366475
2390.094940660916	0.002511886431509582
2400.9275642502566	0.0029853826189179603
2412.583473844801	0.0035481338923357567
2424.8609043454385	0.004216965034285822
2436.8742237277725	0.0050118723362727255
2448.829425278321	0.005956621435290103
2460.8176444007618	0.00707945784384138
2472.7006604352	0.008413951416451957
2484.3      	0.01        
2495.148495538212	0.01188502227437019
2506.5031230732575	0.014125375446227554
2518.3457933612503	0.016788040181225587
2530.660191983098	0.01995262314968883
2543.3032598731934	0.023713737056616554
2556.6910191476745	0.02818382931264455
2571.203221142102	0.033496543915782793
2586.693050822545	0.03981071705534969
2603.0462034177935	0.04731512589614813
2620.4453200283456	0.056234132519034905
2639.2480223284742	0.06683439175686148
2659.193394350319	0.07943282347242821
2680.188053220486	0.09440608762859228
2702.3875095607714	0.11220184543019629
2726.5482511923797	0.1333521432163324
2753.5211067356117	0.1584893192461114
2783.258959128875	0.18836490894898023
2816.1951782325104	0.22387211385683378
2853.529362568212	0.26607250597988086
2896.3516727084157	0.3162277660168379
2944.3576687338514	0.3758374042884443
2997.038254847867	0.4466835921509634
3053.7475309328966	0.5308844442309879
3112.688105252901	0.630957344480193
3167.092142664595	0.7498942093324559
3215.436552839257	0.8912509381337458
3255.7773368041658	1.0592537251772898
3286.937697042007	1.2589254117941662
3306.325788896604	1.4962356560944328
3319.293072690928	1.7782794100389228
3327.970751811294	2.1134890398366473
3333.431433433963	2.511886431509582
3336.6415770774097	2.9853826189179573
3337.907921291195	3.548133892335753
3338.4604918055643	4.216965034285823
3338.3724862606405	5.011872336272725
3337.75042644859	5.956621435290109
3336.7995416989343	7.079457843841373
3335.252069136233	8.413951416451948
3333.6      	10.0        
