# T(K)	P(bar)
2765.4      	1e-08       
2759.7834030192234	1.1885022274370215e-08
2755.1434550948925	1.4125375446227554e-08
2751.253796637034	1.6788040181225588e-08
2747.9244860414565	1.9952623149688826e-08
2745.1414207826306	2.3713737056616554e-08
2742.6524993558537	2.818382931264461e-08
2740.2948259733284	3.3496543915782795e-08
2738.0247256285584	3.981071705534969e-08
2735.7797581274854	4.731512589614813e-08
2733.5852749513797	5.6234132519034905e-08
2731.478556263689	6.683439175686162e-08
2729.3160959930424	7.94328234724282e-08
2727.0903073084596	9.440608762859226e-08
2724.8360677015544	1.1220184543019653e-07
2722.5893327718913	1.333521432163324e-07
2720.219152795808	1.584893192461114e-07
2717.7041462374614	1.883649089489802e-07
2715.007432490165	2.2387211385683422e-07
2712.055798258496	2.6607250597988136e-07
2708.9820233779706	3.162277660168379e-07
2705.6040448866097	3.7583740428844433e-07
2701.9546492411714	4.466835921509635e-07
2698.0683534645577	5.308844442309889e-07
2693.9708803834883	6.309573444801942e-07
2689.7497588411597	7.498942093324558e-07
2685.3481445029843	8.912509381337459e-07
2680.724703169055	1.0592537251772896e-06
2675.795097192742	1.2589254117941687e-06
2670.59908857571	1.4962356560944327e-06
2665.093653283473	1.7782794100389227e-06
2659.1906669963514	2.1134890398366474e-06
2652.9005614603752	2.511886431509582e-06
2646.3197669913093	2.9853826189179636e-06
2639.4809378177274	3.5481338923357534e-06
2632.3247540275074	4.216965034285822e-06
2624.782305686204	5.011872336272725e-06
2616.8161603503963	5.95662143529011e-06
2608.6543995825223	7.079457843841388e-06
2600.4913965924134	8.413951416451948e-06
2592.0052775250224	1e-05       
2583.1724344586737	1.188502227437019e-05
2573.9855043209723	1.4125375446227555e-05
2564.771591161741	1.678804018122562e-05
2555.242328524495	1.9952623149688786e-05
2545.1348387801513	2.371373705661655e-05
2534.3327028763956	2.818382931264455e-05
2522.7163310870474	3.349654391578279e-05
2510.704001699579	3.981071705534977e-05
2497.7093569358067	4.731512589614803e-05
2483.551297806168	5.623413251903491e-05
2468.1176138721416	6.683439175686148e-05
2451.5533041576164	7.943282347242821e-05
2434.507001251663	9.440608762859246e-05
2416.6954028801006	0.00011220184543019629
2398.562142591859	0.0001333521432163324
2380.582358847595	0.00015848931924611142
2363.679064673603	0.00018836490894898024
2348.57405127557	0.00022387211385683424
2335.199040812031	0.0002660725059798809
2323.9093493734294	0.0003162277660168379
2314.98731523582	0.00037583740428844437
2310.0265318406327	0.0004466835921509635
2308.4484124205746	0.0005308844442309889
2309.6949144525106	0.000630957344480193
2313.4830400566198	0.0007498942093324559
2319.489699920697	0.0008912509381337458
2327.860104535715	0.0010592537251772895
2337.8984331487572	0.0012589254117941673
2349.311850305454	0.0014962356560944345
2361.767411143015	0.0017782794100389225
2374.7330666351913	0.0021134890398366475
2388.0716898076876	0.002511886431509582
2402.0304800645586	0.0029853826189179603
2416.2672640306214	0.0035481338923357567
2430.3056266490976	0.004216965034285822
2442.9430145707734	0.0050118723362727255
2454.4783549698477	0.005956621435290103
2465.0017898098918	0.00707945784384138
2474.4226992032	0.008413951416451957
2482.8      	0.01        
2489.95539067414	0.01188502227437019
2496.699069852389	0.014125375446227554
2503.2242435441913	0.016788040181225587
2509.6868890480996	0.01995262314968883
2516.048181068273	0.023713737056616554
2522.3592204006245	0.02818382931264455
2528.773250696106	0.033496543915782793
2535.2427580031	0.03981071705534969
2541.7371282740596	0.04731512589614813
2548.085454604937	0.056234132519034905
2554.1093025072573	0.06683439175686148
2559.817477731431	0.07943282347242821
2565.1064843390154	0.09440608762859228
2569.90982580843	0.11220184543019629
2573.7693692000607	0.1333521432163324
2577.1501826149724	0.1584893192461114
2580.0596157697346	0.18836490894898023
2582.516398790695	0.22387211385683378
2584.590520142678	0.26607250597988086
2586.3778365576673	0.3162277660168379
2588.122466944324	0.3758374042884443
2589.892563905272	0.4466835921509634
2591.7964951832273	0.5308844442309879
2594.0816244015164	0.630957344480193
2596.590144695304	0.7498942093324559
2599.40123699801	0.8912509381337458
2602.5157781458965	1.0592537251772898
2605.918437832065	1.2589254117941662
2609.640951468148	1.4962356560944328
2613.6699496663323	1.7782794100389228
2618.076290348914	2.1134890398366473
2622.9982943452846	2.511886431509582
2628.6962993124025	2.9853826189179573
2635.141586778774	3.548133892335753
2642.389235046578	4.216965034285823
2650.5402198297493	5.011872336272725
2659.6705222898063	5.956621435290109
2669.6548121611863	7.079457843841373
2680.4218215138653	8.413951416451948
2691.8      	10.0        
