# T(K)	P(bar)
2086.9      	1e-08       
2087.900215900686	1.1885022274370215e-08
2088.9665116420647	1.4125375446227554e-08
2090.239020090613	1.6788040181225588e-08
2091.812480601329	1.9952623149688826e-08
2093.6413520571286	2.3713737056616554e-08
2095.6963286684986	2.818382931264461e-08
2098.050536857017	3.3496543915782795e-08
2101.444367335744	3.981071705534969e-08
2106.5663362436085	4.731512589614813e-08
2112.209292982166	5.6234132519034905e-08
2118.810631436865	6.683439175686162e-08
2126.0168171664627	7.94328234724282e-08
2133.7427981153096	9.440608762859226e-08
2142.0447063837064	1.1220184543019653e-07
2150.6442780110365	1.333521432163324e-07
2159.5063686607123	1.584893192461114e-07
2168.6398451580912	1.883649089489802e-07
2177.957779220024	2.2387211385683422e-07
2187.211551405796	2.6607250597988136e-07
2195.8703345416834	3.162277660168379e-07
2208.032799228819	3.7583740428844433e-07
2222.1899538714647	4.466835921509635e-07
2236.438075212022	5.308844442309889e-07
2249.8336602847503	6.309573444801942e-07
2262.2525153501015	7.498942093324558e-07
2274.315409202672	8.912509381337459e-07
2288.767224457228	1.0592537251772896e-06
2309.4561348740726	1.2589254117941687e-06
2332.566740364752	1.4962356560944327e-06
2353.151644621033	1.7782794100389227e-06
2372.968135703909	2.1134890398366474e-06
2393.77717993397	2.511886431509582e-06
2418.2545252152504	2.9853826189179636e-06
2443.084911066001	3.5481338923357534e-06
2465.4442625007846	4.216965034285822e-06
2488.4656320105287	5.011872336272725e-06
2514.6747420796855	5.95662143529011e-06
2543.1220441735395	7.079457843841388e-06
2565.750490293983	8.413951416451948e-06
2588.578525932666	1e-05       
2614.5309034699635	1.188502227437019e-05
2645.2397767838866	1.4125375446227555e-05
2669.4458198293237	1.678804018122562e-05
2690.7414565522927	1.9952623149688786e-05
2716.438020655655	2.371373705661655e-05
2745.2642939276093	2.818382931264455e-05
2769.6743260046023	3.349654391578279e-05
2787.6158179743475	3.981071705534977e-05
2808.2918056833087	4.731512589614803e-05
2830.0881284268944	5.623413251903491e-05
2851.0120244560107	6.683439175686148e-05
2867.7356063793295	7.943282347242821e-05
2881.4282647790947	9.440608762859246e-05
2896.9085281051894	0.00011220184543019629
2912.8228573588403	0.0001333521432163324
2927.148696564357	0.00015848931924611142
2938.155492770677	0.00018836490894898024
2949.4634265051895	0.00022387211385683424
2960.343679303973	0.0002660725059798809
2969.634088939165	0.0003162277660168379
2975.9495439748143	0.00037583740428844437
2979.4375947995554	0.0004466835921509635
2982.995504775594	0.0005308844442309889
2984.3020342189957	0.000630957344480193
2982.034067144135	0.0007498942093324559
2976.1074960782453	0.0008912509381337458
2968.630088686363	0.0010592537251772895
2958.484266378851	0.0012589254117941673
2945.0633690719255	0.0014962356560944345
2928.0988832854778	0.0017782794100389225
2908.6504000472137	0.0021134890398366475
2888.3041983399717	0.002511886431509582
2865.524376464729	0.0029853826189179603
2840.625408670554	0.0035481338923357567
2814.4496146861034	0.004216965034285822
2788.628778870827	0.0050118723362727255
2762.381788346564	0.005956621435290103
2735.7300410102157	0.00707945784384138
2708.9040237128006	0.008413951416451957
2682.0      	0.01        
2655.9174468974898	0.01188502227437019
2630.196478074627	0.014125375446227554
2604.6711890049746	0.016788040181225587
2579.043754902792	0.01995262314968883
2552.9624576200795	0.023713737056616554
2527.1714776315944	0.02818382931264455
2501.16163438523	0.033496543915782793
2474.852084283514	0.03981071705534969
2448.0099028428585	0.04731512589614813
2421.2058583347107	0.056234132519034905
2395.9064323396874	0.06683439175686148
2371.895854784835	0.07943282347242821
2349.373243647317	0.09440608762859228
2328.318962959077	0.11220184543019629
2311.4141629037345	0.1333521432163324
2298.0724848120553	0.1584893192461114
2287.550058784342	0.18836490894898023
2279.254711599293	0.22387211385683378
2272.5537041544235	0.26607250597988086
2267.8959844825063	0.3162277660168379
2264.208129785578	0.3758374042884443
2261.296655775732	0.4466835921509634
2259.0466404224685	0.5308844442309879
2257.864677033698	0.630957344480193
2257.76636802107	0.7498942093324559
2258.471540920267	0.8912509381337458
2260.0013706245477	1.0592537251772898
2262.3820315267208	1.2589254117941662
2265.4841262234563	1.4962356560944328
2269.1905185531436	1.7782794100389228
2273.2833843871413	2.1134890398366473
2277.660578479247	2.511886431509582
2282.3152867622443	2.9853826189179573
2286.778714680582	3.548133892335753
2291.1423497686783	4.216965034285823
2295.292596175515	5.011872336272725
2299.123507429935	5.956621435290109
2302.451604053729	7.079457843841373
2305.006370840026	8.413951416451948
2307.9      	10.0        
