# T(K)	P(bar)
1297.7      	1e-08       
1300.2390095940498	1.1885022274370215e-08
1303.0805315998905	1.4125375446227554e-08
1306.3134686356618	1.6788040181225588e-08
1309.9928917681634	1.9952623149688826e-08
1314.0482154310243	2.3713737056616554e-08
1318.4735949175151	2.818382931264461e-08
1323.349527990816	3.3496543915782795e-08
1328.6935626694221	3.981071705534969e-08
1334.513530930576	4.731512589614813e-08
1340.6267340640134	5.6234132519034905e-08
1347.1193599106086	6.683439175686162e-08
1354.005405736649	7.94328234724282e-08
1361.2903749424243	9.440608762859226e-08
1369.0204562015372	1.1220184543019653e-07
1376.7678180279606	1.333521432163324e-07
1384.8893485046563	1.584893192461114e-07
1393.386179208462	1.883649089489802e-07
1402.3378559105424	2.2387211385683422e-07
1411.9904975870807	2.6607250597988136e-07
1421.837525190495	3.162277660168379e-07
1432.2388865649127	3.7583740428844433e-07
1443.2059408023433	4.466835921509635e-07
1454.743819747149	5.308844442309889e-07
1466.6422511941018	6.309573444801942e-07
1478.8525153501014	7.498942093324558e-07
1491.7212583069931	8.912509381337459e-07
1505.6919276262834	1.0592537251772896e-06
1521.3784194561263	1.2589254117941687e-06
1538.0521784510795	1.4962356560944327e-06
1555.8358164576498	1.7782794100389227e-06
1574.9610416656813	2.1134890398366474e-06
1595.5651765301957	2.511886431509582e-06
1617.7954212610637	2.9853826189179636e-06
1641.150504532707	3.5481338923357534e-06
1666.0936068065057	4.216965034285822e-06
1692.5456791169036	5.011872336272725e-06
1720.4869222432435	5.95662143529011e-06
1749.6473878993388	7.079457843841388e-06
1779.5211955240684	8.413951416451948e-06
1809.4981801637853	1e-05       
1839.777788285028	1.188502227437019e-05
1870.8919772442448	1.4125375446227555e-05
1901.344741075601	1.678804018122562e-05
1930.5355762932527	1.9952623149688786e-05
1959.7038319649928	2.371373705661655e-05
1988.6709680487108	2.818382931264455e-05
2016.686175663131	3.349654391578279e-05
2041.942868221399	3.981071705534977e-05
2067.1034878573455	4.731512589614803e-05
2092.2928347128664	5.623413251903491e-05
2117.5383983558636	6.683439175686148e-05
2142.464499032048	7.943282347242821e-05
2166.03497575785	9.440608762859246e-05
2189.9398559250617	0.00011220184543019629
2214.181071788935	0.0001333521432163324
2238.6668590910194	0.00015848931924611142
2262.174230988803	0.00018836490894898024
2285.482254272531	0.00022387211385683424
2309.9240710399354	0.0002660725059798809
2335.107094639264	0.0003162277660168379
2359.9803438348918	0.00037583740428844437
2382.8464547970834	0.0004466835921509635
2406.5481624104964	0.0005308844442309889
2430.3997398098923	0.000630957344480193
2453.567622601567	0.0007498942093324559
2474.9513317176825	0.0008912509381337458
2494.98751981169	0.0010592537251772895
2515.418753029878	0.0012589254117941673
2535.0615465521596	0.0014962356560944345
2552.7634641291024	0.0017782794100389225
2567.7846503700384	0.0021134890398366475
2581.1687296385894	0.002511886431509582
2592.7292424776642	0.0029853826189179603
2602.084396379295	0.0035481338923357567
2609.1018755496993	0.004216965034285822
2613.314338190258	0.0050118723362727255
2614.9347604112977	0.005956621435290103
2614.1645895601087	0.00707945784384138
2611.0941600904002	0.008413951416451957
2606.1      	0.01        
2599.944825226546	0.01188502227437019
2593.008172663426	0.014125375446227554
2585.6048995469364	0.016788040181225587
2578.1451803863943	0.01995262314968883
2571.38630761496	0.023713737056616554
2565.8133579458004	0.02818382931264455
2561.228831884129	0.033496543915782793
2557.6032186652888	0.03981071705534969
2554.7876239086468	0.04731512589614813
2552.671515131688	0.056234132519034905
2551.024856491622	0.06683439175686148
2549.454354280745	0.07943282347242821
2547.7120820474433	0.09440608762859228
2545.523121934099	0.11220184543019629
2542.8214415599573	0.1333521432163324
2539.635174330639	0.1584893192461114
2535.951862366986	0.18836490894898023
2531.8351717424025	0.22387211385683378
2527.5273812421296	0.26607250597988086
2523.1418833136077	0.3162277660168379
2518.5897477402214	0.3758374042884443
2514.013757448033	0.4466835921509634
2509.5172336053806	0.5308844442309879
2505.0257727280546	0.630957344480193
2500.4842867568805	0.7498942093324559
2495.813836318931	0.8912509381337458
2491.024703169055	1.0592537251772898
2486.1041987690783	1.2589254117941662
2481.063294886883	1.4962356560944328
2476.131946623039	1.7782794100389228
2471.285128458732	2.1134890398366473
2466.5759931924513	2.511886431509582
2462.081792091626	2.9853826189179573
2458.4517312071143	3.548133892335753
2455.2136065276645	4.216965034285823
2452.392439154266	5.011872336272725
2450.00085289718	5.956621435290109
2448.0990833978694	7.079457843841373
2446.521018224984	8.413951416451948
2444.9      	10.0        
