# T(K)	P(bar)
2742.8      	1e-08       
2734.4905140558376	1.1885022274370215e-08
2728.495946779132	1.4125375446227554e-08
2723.8174702735537	1.6788040181225588e-08
2719.661452684242	1.9952623149688826e-08
2715.9241936223893	2.3713737056616554e-08
2712.439452219169	2.818382931264461e-08
2709.0164660983833	3.3496543915782795e-08
2705.6647768132457	3.981071705534969e-08
2702.361771410067	4.731512589614813e-08
2698.991672246762	5.6234132519034905e-08
2695.5946842815674	6.683439175686162e-08
2692.224143989564	7.94328234724282e-08
2688.929010440657	9.440608762859226e-08
2685.714022081401	1.1220184543019653e-07
2682.6925509690955	1.333521432163324e-07
2679.774472691771	1.584893192461114e-07
2676.9679082446573	1.883649089489802e-07
2674.287509180683	2.2387211385683422e-07
2671.73474443978	2.6607250597988136e-07
2669.5574163645792	3.162277660168379e-07
2667.473448156708	3.7583740428844433e-07
2665.53754756887	4.466835921509635e-07
2663.7852965914562	5.308844442309889e-07
2662.130547847178	6.309573444801942e-07
2660.439903536464	7.498942093324558e-07
2658.625534527572	8.912509381337459e-07
2656.477703405703	1.0592537251772896e-06
2653.740722414119	1.2589254117941687e-06
2651.0263895544754	1.4962356560944327e-06
2648.1870162706737	1.7782794100389227e-06
2645.1181711134664	2.1134890398366474e-06
2641.8319948943385	2.511886431509582e-06
2638.46134406872	2.9853826189179636e-06
2635.229206610613	3.5481338923357534e-06
2632.0066119906214	4.216965034285822e-06
2628.7674195266095	5.011872336272725e-06
2625.5014214953	5.95662143529011e-06
2622.3318056631156	7.079457843841388e-06
2619.242036449967	8.413951416451948e-06
2616.063785259327	1e-05       
2612.8376963012893	1.188502227437019e-05
2609.616997264067	1.4125375446227555e-05
2606.4155528612832	1.678804018122562e-05
2603.3600871972203	1.9952623149688786e-05
2600.2974339280145	2.371373705661655e-05
2597.1963570290236	2.818382931264455e-05
2594.052905406935	3.349654391578279e-05
2590.9728209486098	3.981071705534977e-05
2587.856574721826	4.731512589614803e-05
2584.595293714028	5.623413251903491e-05
2581.118318452493	6.683439175686148e-05
2577.455057650242	7.943282347242821e-05
2573.6920858618537	9.440608762859246e-05
2569.6106136602834	0.00011220184543019629
2565.1642856438566	0.0001333521432163324
2560.3024095013434	0.00015848931924611142
2555.03487131689	0.00018836490894898024
2549.385758085823	0.00022387211385683424
2543.144931352017	0.0002660725059798809
2536.29079771996	0.0003162277660168379
2528.8643568565285	0.00037583740428844437
2521.0356205609983	0.0004466835921509635
2512.595629780633	0.0005308844442309889
2503.5526295037807	0.000630957344480193
2493.9444927048785	0.0007498942093324559
2483.8533041332284	0.0008912509381337458
2473.411143483116	0.0010592537251772895
2462.492916615047	0.0012589254117941673
2451.13811594418	0.0014962356560944345
2439.426161963273	0.0017782794100389225
2427.8045073452863	0.0021134890398366475
2416.0490313759988	0.002511886431509582
2404.012188232364	0.0029853826189179603
2391.740379609222	0.0035481338923357567
2379.172012199073	0.004216965034285822
2366.222590007726	0.0050118723362727255
2352.723513967633	0.005956621435290103
2338.766501008369	0.00707945784384138
2324.5186234868	0.008413951416451957
2310.1      	0.01        
2296.2508567597292	0.01188502227437019
2282.2996011478845	0.014125375446227554
2268.516084457181	0.016788040181225587
2255.1398080169024	0.01995262314968883
2242.496740126807	0.023713737056616554
2230.7243719403054	0.02818382931264455
2219.755581188023	0.033496543915782793
2209.7712141438237	0.03981071705534969
2200.813421883877	0.04731512589614813
2192.9759819692135	0.056234132519034905
2186.0531257385537	0.06683439175686148
2179.7288285527925	0.07943282347242821
2173.9628672270833	0.09440608762859228
2168.6616194813782	0.11220184543019629
2163.7985948079236	0.1333521432163324
2159.0607083683335	0.1584893192461114
2154.325720431748	0.18836490894898023
2149.378926332744	0.22387211385683378
2143.7947534620193	0.26607250597988086
2137.3722490937375	0.3162277660168379
2130.2529836495096	0.3758374042884443
2122.4382952150627	0.4466835921509634
2113.8628994079136	0.5308844442309879
2104.328394738501	0.630957344480193
2094.2394212187837	0.7498942093324559
2083.5322847441726	0.8912509381337458
2072.196406101463	1.0592537251772898
2060.199178622124	1.2589254117941662
2048.256114039692	1.4962356560944328
2036.6480650826945	1.7782794100389228
2025.375795455083	2.1134890398366473
2014.4679838320722	2.511886431509582
2003.794256217612	2.9853826189179573
1994.238609993238	3.548133892335753
1984.9408195829933	4.216965034285823
1975.8272782074853	5.011872336272725
1966.7915157242214	5.956621435290109
1957.837350998301	7.079457843841373
1948.901905704905	8.413951416451948
1939.0      	10.0        
